Dangerplot_version	1.0
Number_of_points	2048
Sampling_frequency	2.00000000e+03
Transmitter_frequency	1.27788256e+08
Phi0	0
Phi1	0
PPM_reference	0
Real_FID	Imag_FID	
4.02172934e-03	9.42647457e-05
6.15218654e-03	2.15448951e-03
2.97913235e-03	2.96368683e-03
1.08676800e-03	1.61946402e-03
1.21263391e-03	-7.02577527e-05
2.20366218e-03	-8.07803706e-04
2.60470109e-03	-5.69886644e-04
2.21413351e-03	-2.48112861e-04
1.91495952e-03	-4.76550660e-04
2.11257371e-03	-1.02229160e-03
2.87718093e-03	-1.36933511e-03
3.43905436e-03	-1.11255317e-03
3.29786609e-03	-3.71452013e-04
2.70365016e-03	2.20466813e-04
2.07175803e-03	-1.50552543e-04
2.03601923e-03	-1.20850629e-03
2.87186098e-03	-1.86471804e-03
3.86709836e-03	-1.33300084e-03
3.98808252e-03	-6.93341717e-05
3.27385194e-03	6.60304329e-04
2.49301735e-03	2.72738747e-04
2.47491430e-03	-4.16149967e-04
2.85440008e-03	-5.13210951e-04
2.85785948e-03	4.07168409e-05
2.35547661e-03	1.14136317e-04
2.22890708e-03	-5.98093553e-04
2.76684668e-03	-1.10953732e-03
3.43258353e-03	-7.47629150e-04
3.41869099e-03	3.00072832e-04
2.73451232e-03	8.36699677e-04
1.88588421e-03	5.32562146e-04
1.54522830e-03	-3.38554120e-04
1.75510882e-03	-1.00397086e-03
2.25773896e-03	-1.11345516e-03
2.70562340e-03	-8.35934712e-04
2.86406837e-03	-7.39107199e-04
2.77184928e-03	-7.16673094e-04
2.85466108e-03	-8.61424603e-04
3.16036819e-03	-7.34422880e-04
3.57426959e-03	-1.19315693e-04
3.21167195e-03	5.38734137e-04
2.31493125e-03	6.07779482e-04
1.59786246e-03	-1.99587492e-04
1.94926641e-03	-1.01629959e-03
3.01766559e-03	-1.02328463e-03
3.43040982e-03	-1.79074355e-04
2.83192564e-03	4.63718199e-04
1.88155158e-03	1.58186769e-04
1.80705253e-03	-6.57332712e-04
2.62504723e-03	-1.02206564e-03
3.38950311e-03	-5.99031337e-04
3.26023018e-03	1.89901097e-04
2.47526169e-03	5.00561669e-04
1.86855195e-03	1.79027207e-04
1.85533054e-03	-4.21860081e-04
2.31785211e-03	-7.36789079e-04
2.64969864e-03	-6.55469601e-04
2.65497016e-03	-3.91000416e-04
2.41178344e-03	-2.65931827e-04
2.28714570e-03	-5.70802309e-04
2.63687479e-03	-9.03117238e-04
3.23236501e-03	-7.64837721e-04
3.43920058e-03	-3.70200723e-08
2.80485535e-03	7.37939379e-04
1.85995828e-03	6.20229868e-04
1.45856023e-03	-2.92842975e-04
2.07867706e-03	-1.05991540e-03
2.82100309e-03	-9.29453643e-04
3.01807094e-03	-2.84637557e-04
2.67648743e-03	5.51600242e-05
2.45636329e-03	-8.13496299e-05
2.52310187e-03	-2.70342920e-04
2.58349977e-03	-8.73841345e-05
2.26673367e-03	2.55035586e-04
1.77070266e-03	7.99809932e-05
1.59920636e-03	-5.62924251e-04
2.03528022e-03	-1.13536068e-03
2.80793943e-03	-1.14573725e-03
3.23789986e-03	-4.85629076e-04
3.02526727e-03	3.72462207e-04
2.27015815e-03	6.85163075e-04
1.49422931e-03	1.81482232e-04
1.28648814e-03	-6.21700601e-04
1.83828874e-03	-1.16663915e-03
2.53843376e-03	-1.16383983e-03
2.88955378e-03	-7.67389429e-04
2.83422298e-03	-5.48261218e-04
2.90808687e-03	-4.96123102e-04
3.21597094e-03	-3.04263202e-04
3.27495113e-03	3.56863602e-04
2.72219256e-03	1.06469635e-03
1.57013384e-03	1.06569182e-03
8.08933866e-04	1.80295116e-04
1.07093016e-03	-9.04332031e-04
1.92190695e-03	-1.33498490e-03
2.80322996e-03	-9.32162977e-04
2.76536797e-03	-2.80866632e-04
2.36918638e-03	3.87612963e-05
2.07817182e-03	-1.37745577e-04
2.15866300e-03	-3.57490906e-04
2.32638628e-03	-3.23805260e-04
2.19722511e-03	-1.48140243e-04
1.86063244e-03	-2.14086031e-04
1.72832515e-03	-7.00877747e-04
2.22679996e-03	-1.22139789e-03
3.04341572e-03	-1.10617606e-03
3.64645710e-03	-3.10788630e-04
3.37888440e-03	7.62990909e-04
2.32731202e-03	1.25444494e-03
1.28725113e-03	8.09335732e-04
1.08409510e-03	-1.39719050e-04
1.59365032e-03	-7.80165428e-04
2.12232862e-03	-7.01593061e-04
2.32891412e-03	-4.49947082e-04
2.14649853e-03	-2.90732423e-04
2.18842342e-03	-3.57468671e-04
2.34413124e-03	-2.90018972e-04
2.34894757e-03	4.62597236e-05
1.93098956e-03	2.64569011e-04
1.38826715e-03	3.78811965e-05
1.31586264e-03	-7.91510392e-04
1.91626372e-03	-1.40375493e-03
2.84791458e-03	-1.32136676e-03
3.41256708e-03	-4.80506336e-04
3.18350876e-03	4.21713688e-04
2.35694507e-03	7.51115091e-04
1.83590583e-03	4.14901820e-04
1.85841613e-03	-3.57105746e-05
2.14100257e-03	-3.15827783e-05
2.17020977e-03	2.59706983e-04
1.71510130e-03	3.23327724e-04
1.25262979e-03	-1.19989563e-04
1.47608225e-03	-7.05370505e-04
2.11659493e-03	-8.20823014e-04
2.60959356e-03	-3.67799075e-04
2.36029294e-03	1.60928059e-04
1.68243493e-03	2.05494056e-04
1.43132475e-03	-2.93829129e-04
1.71763171e-03	-9.22299456e-04
2.39811558e-03	-1.01413357e-03
2.83590145e-03	-4.05958970e-04
2.61006062e-03	2.17781519e-04
2.09630514e-03	3.14286852e-04
1.75537937e-03	-1.79051189e-04
2.05496093e-03	-5.31323138e-04
2.45849090e-03	-3.84315324e-04
2.48057116e-03	1.34314061e-04
2.07347167e-03	4.39220632e-04
1.65750924e-03	1.37163035e-04
1.67289504e-03	-2.30619335e-04
2.07723188e-03	-3.19785264e-04
2.24879896e-03	7.35495705e-05
1.88832055e-03	3.94885370e-04
1.33192039e-03	1.63053861e-04
1.27781671e-03	-5.09640377e-04
1.72511046e-03	-9.48271365e-04
2.33671977e-03	-7.90379068e-04
2.50520650e-03	-2.42746726e-04
2.24321662e-03	4.45243786e-05
1.78886135e-03	3.57697718e-06
1.80188753e-03	-3.61879240e-04
2.02790881e-03	-5.03547199e-04
2.29699607e-03	-2.42835958e-04
2.23392760e-03	1.18312426e-04
1.90976227e-03	2.47601885e-04
1.64764153e-03	-1.17688498e-04
1.90634700e-03	-4.00142686e-04
2.29038671e-03	-1.47300831e-04
2.19377875e-03	4.48701321e-04
1.52757263e-03	7.13497575e-04
8.47481715e-04	1.01390528e-04
8.87664093e-04	-9.15542245e-04
1.82123494e-03	-1.34916895e-03
2.67691375e-03	-9.65359039e-04
2.84494483e-03	-4.45431215e-05
2.36210204e-03	4.49620333e-04
1.81117479e-03	3.76020907e-04
1.74195168e-03	1.71548920e-04
1.68513251e-03	9.10116942e-05
1.57337019e-03	2.17607085e-04
1.12038373e-03	1.20561497e-04
1.03072322e-03	-4.26546641e-04
1.27946213e-03	-1.01320480e-03
2.05413066e-03	-1.23192300e-03
2.85425852e-03	-7.31354754e-04
2.97225406e-03	2.27630371e-04
2.15234305e-03	9.75338742e-04
1.13970391e-03	8.13317485e-04
7.55482935e-04	-9.37522273e-05
1.19091617e-03	-8.45814531e-04
1.97070627e-03	-8.29549856e-04
2.29377835e-03	-2.88352254e-04
1.95606472e-03	4.35135444e-05
1.61336723e-03	-3.70470807e-05
1.83832715e-03	-2.78968568e-04
2.15242454e-03	-4.27260238e-05
1.97986257e-03	5.74434816e-04
1.26999989e-03	6.63858256e-04
8.37942527e-04	5.57789026e-05
9.92047135e-04	-6.65112224e-04
1.58816238e-03	-9.62492719e-04
2.12197471e-03	-7.45396421e-04
2.32730689e-03	-9.29899979e-05
2.05426686e-03	3.94424569e-04
1.59552670e-03	4.23762132e-04
1.17668358e-03	2.12430954e-04
1.06014451e-03	-1.76226080e-04
1.30917272e-03	-4.57720191e-04
1.47200772e-03	-5.02627867e-04
1.62344892e-03	-5.52524230e-04
1.81753747e-03	-6.73121191e-04
2.30830209e-03	-5.25003590e-04
2.70202244e-03	5.63329377e-05
2.45768251e-03	8.35025450e-04
1.52025744e-03	1.18185102e-03
6.40869315e-04	6.28434122e-04
5.95834688e-04	-3.11065727e-04
1.26115920e-03	-6.22366671e-04
1.66800886e-03	-2.63218593e-04
1.46211055e-03	1.35122609e-05
1.16622774e-03	-2.34875799e-04
1.29961793e-03	-6.45965803e-04
1.82966783e-03	-6.28633075e-04
2.13157851e-03	-2.11368344e-04
1.87380309e-03	2.19223148e-04
1.43450242e-03	3.10305797e-04
1.15244719e-03	-4.17686570e-05
1.29066489e-03	-5.24253061e-04
1.82404136e-03	-6.59138313e-04
2.23454903e-03	-2.89937569e-04
2.25937623e-03	3.33463482e-04
1.67183264e-03	7.23353587e-04
9.82958358e-04	4.87363170e-04
9.21941013e-04	-2.74392776e-04
1.44462870e-03	-6.52289134e-04
2.06003734e-03	-2.41296220e-04
1.81775843e-03	4.22581536e-04
1.20029051e-03	4.94091248e-04
8.99288221e-04	-4.31992376e-05
1.29864656e-03	-5.30337391e-04
1.70780683e-03	-3.76961369e-04
1.71200547e-03	1.49381347e-04
1.23419636e-03	1.92780659e-04
1.02928630e-03	-1.53487665e-04
1.29263033e-03	-6.10860588e-04
1.75217970e-03	-6.02648477e-04
2.01108260e-03	-2.26447431e-04
1.86132395e-03	2.15989712e-05
1.60348974e-03	1.74421642e-04
1.38164964e-03	5.99880150e-06
1.36726513e-03	-1.46863138e-04
1.56133343e-03	-2.34245643e-04
1.76552834e-03	-4.13129601e-05
1.71015260e-03	3.07016569e-04
1.31156133e-03	4.44434932e-04
9.67079890e-04	2.34006147e-04
1.04300212e-03	-1.61790333e-04
1.24033238e-03	-1.55682355e-04
1.17339659e-03	5.77809406e-05
8.60060391e-04	-5.19084497e-05
7.70919782e-04	-6.50820322e-04
1.41988881e-03	-1.02187856e-03
2.27038073e-03	-6.89210719e-04
2.37151631e-03	1.35805836e-04
1.74747128e-03	6.00554107e-04
1.08515704e-03	4.52817068e-04
1.04154821e-03	-4.41589364e-05
1.27035228e-03	-2.47990858e-04
1.45844975e-03	-5.43753267e-05
1.36489910e-03	7.99877598e-05
1.19173748e-03	3.65618325e-06
1.14993774e-03	-1.64872879e-04
1.36340503e-03	-2.20291608e-04
1.56336906e-03	-5.15586289e-05
1.54767686e-03	2.79721717e-04
1.12392171e-03	4.92851366e-04
5.25766518e-04	2.24076444e-04
4.58407303e-04	-5.42291906e-04
1.01528317e-03	-1.18894165e-03
2.00097635e-03	-1.12937146e-03
2.45766900e-03	-2.16298125e-04
1.98950013e-03	6.59639831e-04
1.12543232e-03	6.78382232e-04
8.62294692e-04	3.27759626e-05
1.18388934e-03	-3.42908810e-04
1.51089649e-03	-1.13667717e-04
1.27761019e-03	2.90599302e-04
7.36850721e-04	1.36022296e-04
7.48244231e-04	-4.20556200e-04
1.29664585e-03	-7.07928673e-04
1.81050168e-03	-3.29171075e-04
1.78446691e-03	2.46409007e-04
1.35599531e-03	6.08250266e-04
7.56778056e-04	4.83536423e-04
3.97844880e-04	-6.28042908e-05
6.27227884e-04	-6.37183315e-04
1.14043395e-03	-8.74889782e-04
1.66023930e-03	-6.04610308e-04
1.76238583e-03	-9.49384703e-05
1.49807113e-03	2.46795622e-04
1.25759630e-03	1.29429041e-04
1.34182803e-03	2.13877647e-05
1.39236834e-03	1.99327653e-04
1.06601720e-03	4.90001461e-04
4.90305072e-04	2.44319730e-04
3.75259697e-04	-4.55391128e-04
1.03290903e-03	-9.80450655e-04
1.83305715e-03	-6.13037555e-04
1.86239253e-03	1.13971648e-04
1.32642698e-03	5.36350650e-04
7.91623315e-04	2.83112779e-04
7.83207128e-04	-2.05733581e-04
1.06187863e-03	-3.40352359e-04
1.30433589e-03	-1.03188562e-04
1.10639876e-03	4.43182944e-05
9.20611899e-04	-1.11289672e-04
9.98908072e-04	-3.03845009e-04
1.26263360e-03	-3.55155091e-04
1.49942888e-03	-1.74042565e-04
1.48746127e-03	2.53660954e-04
1.13522855e-03	5.12581144e-04
5.85397938e-04	3.32220283e-04
3.81890597e-04	-2.30639067e-04
8.40267749e-04	-7.44580058e-04
1.56213390e-03	-6.34353200e-04
1.73472555e-03	5.07629593e-05
1.20588019e-03	4.94535081e-04
6.27048372e-04	3.00936168e-04
6.54585543e-04	-3.15711775e-04
1.09280040e-03	-3.93883209e-04
1.37934135e-03	-4.60810843e-05
1.10845140e-03	2.69631506e-04
7.36445596e-04	1.77071779e-04
6.84869592e-04	-2.63876165e-04
1.17863540e-03	-5.11581660e-04
1.51995360e-03	-2.04037409e-04
1.49599998e-03	2.46056181e-04
1.02453551e-03	4.20883211e-04
6.53711497e-04	2.65384908e-04
6.26408146e-04	-7.70527258e-05
9.09406284e-04	-3.79249861e-04
1.27010001e-03	-2.34031846e-04
1.29056734e-03	1.58357725e-04
9.17828060e-04	4.20257362e-04
5.28172066e-04	2.05476987e-04
5.36552456e-04	-3.76654207e-04
9.53016104e-04	-6.17831363e-04
1.37514458e-03	-3.34424170e-04
1.19086029e-03	2.14847969e-05
9.87227424e-04	-5.17562148e-06
9.58028890e-04	-3.29188770e-04
1.35090097e-03	-4.01983852e-04
1.59233087e-03	-2.21962109e-05
1.28720549e-03	4.97644418e-04
7.64641212e-04	4.97321947e-04
4.72881919e-04	3.91330104e-07
6.87492720e-04	-4.11219517e-04
1.14621932e-03	-3.98044795e-04
1.40635553e-03	2.24917312e-05
1.13175868e-03	4.10332286e-04
6.46051543e-04	3.85633175e-04
4.52663924e-04	4.65354096e-05
5.73475438e-04	-2.64272676e-04
8.99309875e-04	-3.95263050e-04
9.73170158e-04	-2.34083651e-04
8.87294533e-04	-5.74723526e-05
7.24063604e-04	-2.33806786e-04
8.27239419e-04	-5.19329682e-04
1.29090471e-03	-6.50489703e-04
1.71381608e-03	-2.27266923e-04
1.58355420e-03	4.43684228e-04
1.03491021e-03	7.01532757e-04
4.99295595e-04	3.66818567e-04
5.34657098e-04	-9.77666205e-05
8.64965201e-04	-2.92074052e-04
1.07647257e-03	-5.79308835e-05
1.00878975e-03	9.85267980e-05
7.61426636e-04	7.07101426e-05
8.52190773e-04	-1.00459845e-04
9.73825052e-04	-5.37523592e-05
9.81502235e-04	2.64984061e-04
5.47640317e-04	3.13573983e-04
2.23437353e-04	2.58038417e-05
2.85557355e-04	-5.55320643e-04
8.85559828e-04	-9.26418754e-04
1.52470125e-03	-7.42756121e-04
1.86338054e-03	-7.52198976e-05
1.53613486e-03	5.63783105e-04
8.35158338e-04	6.65470434e-04
4.62670461e-04	2.12175844e-04
5.27964439e-04	-1.66470607e-04
8.69703828e-04	-3.07960174e-04
1.02196564e-03	1.21293124e-06
8.70337186e-04	1.31305103e-04
6.26968278e-04	1.70498970e-05
7.46351783e-04	-2.96664773e-04
1.15371379e-03	-3.41560051e-04
1.35894585e-03	6.96763163e-05
1.01810053e-03	4.71077627e-04
4.36264934e-04	3.88848595e-04
2.16902146e-04	-1.22164041e-04
4.32253029e-04	-5.73203084e-04
9.28707886e-04	-6.30735885e-04
1.22104527e-03	-3.01175140e-04
1.13296893e-03	8.83642933e-05
9.63394064e-04	7.13957124e-05
7.78973568e-04	-6.93355105e-05
9.39090853e-04	-1.54907961e-04
1.10623310e-03	4.19788412e-05
9.00806568e-04	2.93919205e-04
5.81715372e-04	1.63471545e-04
4.25419188e-04	-2.44506606e-04
7.61342410e-04	-5.56502899e-04
1.25018065e-03	-4.30901739e-04
1.32787460e-03	5.07486984e-05
1.02747860e-03	4.64050856e-04
5.05058968e-04	4.00453981e-04
2.52171536e-04	-1.20369143e-04
5.25961048e-04	-4.43860947e-04
9.12860909e-04	-3.98901146e-04
1.02855742e-03	-1.83009804e-04
8.96432786e-04	2.03614763e-05
6.81719685e-04	-1.12346053e-04
8.05930060e-04	-2.93868099e-04
1.06418016e-03	-3.18864506e-04
1.20684144e-03	-2.19485373e-05
9.19392915e-04	3.42720072e-04
5.29947691e-04	2.77600891e-04
3.43702268e-04	-1.29763124e-04
6.51880633e-04	-4.32884495e-04
1.02349091e-03	-3.35663062e-04
1.09973154e-03	1.10992376e-04
7.93426705e-04	3.21708212e-04
4.76387795e-04	1.20574005e-04
4.51361208e-04	-3.35683784e-04
7.99513538e-04	-5.33386366e-04
1.18836504e-03	-2.39102286e-04
1.08656427e-03	1.11889298e-04
7.88065256e-04	1.78262504e-04
6.63066341e-04	-5.11947728e-05
7.25103891e-04	-2.25175841e-04
9.99497133e-04	-1.57164235e-04
1.05788570e-03	1.59987452e-04
7.20865268e-04	3.44811880e-04
3.69517336e-04	1.44742808e-04
3.94487812e-04	-2.22917384e-04
6.64512976e-04	-4.84214717e-04
1.03879906e-03	-2.68435397e-04
1.05759082e-03	1.12753769e-04
7.29540421e-04	3.56598932e-04
2.88582902e-04	1.06099003e-04
3.04779154e-04	-3.15420126e-04
7.02369143e-04	-4.80546703e-04
1.06379052e-03	-2.43582675e-04
9.38610756e-04	9.23455518e-05
7.15130533e-04	1.26510757e-04
6.25739573e-04	-5.39646862e-05
8.26982490e-04	-2.12380284e-04
1.01579214e-03	4.59895818e-05
8.53561796e-04	3.93390888e-04
4.19934455e-04	4.31695662e-04
1.48631458e-04	8.47490082e-05
2.86293653e-04	-4.12070949e-04
7.65132485e-04	-5.16266271e-04
1.12801406e-03	-1.64476805e-04
1.04839134e-03	2.63485272e-04
6.16563018e-04	4.74017696e-04
2.30078091e-04	2.89166434e-04
2.14433952e-04	-1.87424142e-04
5.13311243e-04	-4.25809878e-04
7.98311899e-04	-2.53677368e-04
7.83525116e-04	-4.93714469e-06
6.15999044e-04	-2.42607057e-05
6.29620044e-04	-2.53669044e-04
9.54766001e-04	-3.82083817e-04
1.22263399e-03	-5.16924483e-05
1.05396414e-03	4.80811781e-04
5.73284982e-04	6.01064239e-04
1.77705224e-04	1.96113004e-04
2.62023299e-04	-2.20273345e-04
6.33631833e-04	-2.55991821e-04
8.65075621e-04	-8.94882105e-05
6.91042747e-04	1.58487615e-04
5.24623320e-04	1.39740063e-04
4.15459974e-04	3.08380768e-05
6.46051369e-04	-9.08588117e-05
6.76408061e-04	-2.92074255e-05
6.40715880e-04	1.08993889e-04
3.67358298e-04	1.20351142e-04
2.90209951e-04	-2.04998811e-04
4.15045302e-04	-4.67136415e-04
8.58717773e-04	-5.41257905e-04
1.25687115e-03	-2.17338908e-04
1.25014479e-03	2.84725887e-04
7.18692318e-04	5.75053098e-04
2.37076165e-04	3.24559282e-04
2.63419672e-04	-8.39966087e-05
5.75026555e-04	-2.17147812e-04
8.06068711e-04	2.41252128e-05
5.78287989e-04	2.42069524e-04
3.52753093e-04	1.02394028e-04
4.54874476e-04	-2.46208539e-04
7.61002884e-04	-2.02940704e-04
8.23377282e-04	1.57344184e-04
5.61809284e-04	4.71544685e-04
1.08226734e-04	2.00515118e-04
6.76752097e-05	-1.54913476e-04
3.79398756e-04	-5.46792755e-04
8.58039595e-04	-5.25715936e-04
1.08791119e-03	-1.07476662e-04
9.09133116e-04	2.37858403e-04
6.52189541e-04	2.84066511e-04
3.71867151e-04	1.18129945e-04
4.96644934e-04	-9.20673992e-05
7.67727150e-04	-1.49083440e-04
9.11496056e-04	1.19186894e-04
6.23631291e-04	4.05307102e-04
2.59451510e-04	3.14062578e-04
1.63260367e-04	-6.27631744e-05
5.16868080e-04	-3.14527133e-04
8.63000925e-04	-1.20503028e-05
7.17174611e-04	4.22769750e-04
2.48917146e-04	3.23857821e-04
4.29108477e-05	-8.09282210e-05
4.04891558e-04	-4.63726203e-04
8.51594028e-04	-2.72403267e-04
8.45773029e-04	4.68646758e-05
6.18035672e-04	2.35439438e-04
3.83765000e-04	1.27495165e-04
4.61041025e-04	-9.67506639e-05
6.39618491e-04	-1.82351461e-04
7.62448821e-04	5.93998120e-05
7.49470142e-04	1.96508889e-04
5.30032034e-04	2.64091708e-04
3.42009153e-04	1.13083748e-04
3.30443756e-04	-1.37141033e-04
5.73743018e-04	-1.95578919e-04
8.09876772e-04	-1.49938187e-05
7.30647414e-04	3.06024245e-04
3.25790694e-04	3.15544894e-04
9.73842398e-05	-2.27319888e-05
3.74192256e-04	-3.92473419e-04
7.25935213e-04	-2.51838035e-04
9.00413259e-04	9.43986961e-05
5.60384593e-04	3.69761576e-04
2.65925657e-04	1.42402612e-04
3.44650500e-04	-1.18483869e-04
6.27597794e-04	-1.67141872e-04
7.34311587e-04	3.67079156e-05
4.46405989e-04	2.73650017e-04
2.63151567e-04	3.84890154e-05
3.47934489e-04	-2.36265201e-04
6.53859635e-04	-2.82799680e-04
8.37522035e-04	-2.19498288e-05
7.81211827e-04	3.22470383e-04
5.76158287e-04	3.12588469e-04
2.44510389e-04	2.08113357e-04
2.05845980e-04	-1.66015496e-04
4.42358636e-04	-3.93169670e-04
7.75696128e-04	-2.70791439e-04
8.66262068e-04	4.80846647e-05
6.23695669e-04	3.86829313e-04
2.80352018e-04	2.33588027e-04
2.73343700e-04	-1.34370377e-04
5.88410243e-04	-1.55882561e-04
6.70100620e-04	1.77323207e-04
4.83279990e-04	4.09342494e-04
8.34289895e-05	2.10746308e-04
3.97976037e-05	-2.55133869e-04
5.03440970e-04	-4.46407066e-04
8.71725846e-04	-1.12402471e-04
7.97730580e-04	3.04743968e-04
4.53566463e-04	4.35835769e-04
1.74683111e-04	1.41518583e-04
2.25625641e-04	-6.23719170e-05
4.28036175e-04	-1.66707789e-04
5.75025217e-04	-1.60952201e-04
6.31649978e-04	-4.56166890e-05
5.56873332e-04	6.24901077e-05
5.28157514e-04	6.18420017e-05
5.83009445e-04	8.04718002e-06
7.05146289e-04	1.63630757e-05
7.46901089e-04	2.57107255e-04
5.11076069e-04	4.48661856e-04
1.00473830e-04	3.24000081e-04
5.71382225e-06	-3.41640189e-05
2.90503725e-04	-2.97566497e-04
7.52009510e-04	-2.04939657e-04
7.02985912e-04	1.86481499e-04
4.14429698e-04	3.83377163e-04
1.93536325e-04	1.10876077e-04
2.26162621e-04	-1.79717026e-04
5.16746019e-04	-2.08259735e-04
4.76179615e-04	8.51649675e-05
3.76474083e-04	1.02469923e-04
3.00560670e-04	-8.06858516e-05
4.09999629e-04	-3.25185945e-04
7.61975418e-04	-2.62578687e-04
8.16076179e-04	-2.82646506e-05
6.54030417e-04	2.33376995e-04
5.31424361e-04	3.57026001e-04
2.73474609e-04	1.90664548e-04
2.63209018e-04	-4.04133680e-05
3.96862713e-04	-1.12546528e-04
6.16930425e-04	4.33454843e-05
5.22467541e-04	2.37663640e-04
2.61047622e-04	2.72333680e-04
8.58198837e-05	-1.45271279e-05
3.16483987e-04	-2.34269042e-04
5.51535864e-04	-1.78464456e-04
6.08887873e-04	1.77440364e-04
3.13363824e-04	3.54166696e-04
-4.58706418e-05	8.24320305e-05
5.47725940e-05	-3.95992014e-04
5.86799579e-04	-5.76103688e-04
9.58901364e-04	-1.83797456e-04
8.15360167e-04	3.04955378e-04
4.60212410e-04	3.97909345e-04
1.51286949e-04	1.48240098e-04
2.32327089e-04	-6.70345471e-05
5.43174683e-04	-1.23311969e-04
5.87125076e-04	6.10497373e-05
5.24519419e-04	2.45626958e-04
3.48349568e-04	2.79981468e-04
1.88286664e-04	7.21666947e-05
1.84890989e-04	-6.23758315e-05
3.69578484e-04	-1.40005359e-04
4.62695927e-04	7.78007961e-06
3.42876359e-04	1.17463460e-04
1.91402200e-04	1.22665879e-05
2.16571469e-04	-2.49828066e-04
5.34281717e-04	-3.03259527e-04
7.28145940e-04	-4.48772917e-05
5.87057788e-04	2.36511536e-04
2.63173482e-04	1.79989729e-04
1.66847443e-04	-9.66600855e-05
4.65213554e-04	-2.76908948e-04
6.57919911e-04	-1.00561156e-04
6.57280965e-04	2.51046673e-04
4.21066128e-04	2.98731407e-04
1.54514186e-04	6.77172065e-05
1.92964639e-04	-1.26071551e-04
4.60056413e-04	-7.29197054e-05
4.94939159e-04	6.65370026e-05
3.15261073e-04	2.32947874e-04
1.24019920e-04	1.36650764e-04
1.09686247e-04	-1.86709600e-04
2.33053230e-04	-3.98307515e-04
5.81371714e-04	-3.43230320e-04
7.48193823e-04	-3.59199475e-07
5.30706777e-04	2.68680975e-04
1.97356028e-04	2.92862474e-04
9.98381147e-05	3.33588323e-05
2.81157700e-04	-2.70006305e-04
5.27881552e-04	-1.50597465e-04
5.16580127e-04	9.62883933e-05
3.21874046e-04	2.24933770e-04
9.23229964e-05	4.06154213e-05
1.85231067e-04	-1.93453117e-04
4.74381610e-04	-1.64828583e-04
6.24681241e-04	1.10609282e-04
3.79731064e-04	3.29621544e-04
3.54704171e-05	1.51695538e-04
-4.08173000e-05	-1.87067868e-04
2.17962428e-04	-3.10087955e-04
4.98016423e-04	-2.31832702e-04
5.81999193e-04	3.90244240e-05
4.13107453e-04	2.05207689e-04
2.50191661e-04	1.72819447e-04
1.26577797e-04	6.90336165e-05
2.97485327e-04	-6.24641034e-05
3.65401385e-04	2.58352084e-05
3.43797146e-04	1.21776866e-04
1.10314031e-04	1.08256900e-04
6.01428656e-05	-7.00495802e-05
2.52466241e-04	-2.97814346e-04
5.76919760e-04	-1.51786619e-04
5.88835159e-04	1.45134385e-04
3.46718240e-04	3.53324722e-04
2.74083286e-05	2.39329209e-04
-5.38480599e-05	-8.06491880e-05
2.04225522e-04	-3.05306981e-04
4.57220507e-04	-1.52470646e-04
4.46485938e-04	4.87642101e-05
2.73392303e-04	8.83821776e-05
1.74609464e-04	7.91551720e-05
2.33778570e-04	-1.17933538e-04
4.53588873e-04	-7.60976982e-05
4.73266526e-04	1.38493720e-04
2.67289026e-04	3.01485998e-04
5.97141334e-05	1.86007659e-04
-6.26660221e-06	-4.78801885e-05
2.30292411e-04	-2.35296364e-04
4.52712935e-04	-1.66818034e-04
5.01984381e-04	1.02837133e-04
3.05285648e-04	2.48360680e-04
6.00589519e-05	1.28825079e-04
5.83026958e-05	-1.17387273e-04
2.71942117e-04	-2.54720158e-04
4.04331571e-04	-9.89394175e-05
3.57874553e-04	1.18653697e-04
2.33866638e-04	1.43400845e-04
1.45440426e-04	-2.56967833e-05
2.89942487e-04	-2.00668408e-04
5.07711433e-04	-1.20521421e-04
5.39507368e-04	1.88485923e-04
2.97233986e-04	3.22845997e-04
9.21177270e-05	1.73313878e-04
4.13396701e-05	-9.20148523e-05
2.72285833e-04	-1.96389781e-04
4.52277018e-04	-5.81005588e-05
4.31222346e-04	7.56474037e-05
2.21732029e-04	1.20789351e-04
1.99127753e-05	4.38714887e-05
1.00293350e-04	-1.61834148e-04
3.21881758e-04	-2.30376929e-04
4.34432994e-04	-6.68519351e-05
2.87719915e-04	1.48920182e-04
1.29958498e-04	1.23726240e-05
1.03280378e-04	-1.73932203e-04
3.02961038e-04	-2.54766113e-04
4.80408897e-04	-9.71920090e-05
5.32115984e-04	1.38445088e-04
2.74800404e-04	2.53802427e-04
4.40036965e-05	1.20572229e-04
5.00461538e-05	-6.88614236e-05
2.90089985e-04	-1.70915999e-04
4.66911035e-04	7.43566488e-06
3.91400012e-04	2.06628203e-04
1.69653678e-04	2.42566282e-04
-8.74733742e-05	8.92580429e-05
1.76530812e-05	-1.33115827e-04
1.97173009e-04	-1.99052796e-04
3.10908130e-04	-4.71669991e-05
2.12175539e-04	1.01950551e-04
2.85748501e-05	7.14895723e-05
9.50550602e-05	-1.58039576e-04
3.67267377e-04	-2.39303714e-04
5.34163322e-04	-4.94373962e-05
4.35875467e-04	2.07957724e-04
1.04266757e-04	3.22264241e-04
1.46209459e-06	6.06381400e-05
2.02926836e-04	-1.86328063e-04
3.87872860e-04	-9.80837067e-05
5.04779629e-04	1.04720471e-04
2.92232085e-04	2.36002903e-04
5.54727376e-05	2.66521791e-04
3.58113903e-06	4.19551725e-05
7.97491084e-05	-1.03112747e-04
3.70396767e-04	-8.93389370e-05
3.41283652e-04	7.40652977e-05
1.77740556e-04	1.57400485e-04
-2.90885582e-05	7.76334127e-05
-4.36820956e-05	-1.87545025e-04
2.62515154e-04	-2.61050242e-04
5.38168417e-04	-1.04356863e-04
5.15513238e-04	2.10573635e-04
2.05688470e-04	3.15340643e-04
-1.41006985e-05	1.00139900e-04
7.79706170e-05	-1.93128290e-04
3.52069212e-04	-1.71518885e-04
4.63210978e-04	6.57818018e-05
2.61637819e-04	2.35005296e-04
1.57355622e-04	1.47238999e-04
1.74384448e-04	1.04879327e-05
3.11505864e-04	-1.71197098e-05
3.37267760e-04	1.53478672e-04
2.18543821e-04	1.83620839e-04
5.87157665e-05	1.83602155e-04
-9.31906470e-07	-7.52569540e-05
1.86726305e-04	-2.27067998e-04
3.39120394e-04	-1.97738089e-04
5.14355139e-04	1.34944858e-05
3.52897914e-04	1.23411781e-04
2.18799745e-04	1.75693887e-04
1.23669524e-04	2.94707133e-05
1.10490982e-04	-1.13061309e-04
3.80483369e-04	-6.48618297e-05
3.81829363e-04	1.76032830e-04
2.07834586e-04	2.43345203e-04
1.64076719e-05	1.21416429e-04
8.31495636e-05	-9.83757782e-05
3.63881612e-04	-1.06559994e-04
4.89066821e-04	9.64813662e-05
2.22610950e-04	2.78909341e-04
-1.09114415e-04	2.66945775e-04
-1.05956940e-04	-1.01338534e-04
1.15782299e-04	-2.44312076e-04
3.55002441e-04	-1.25865976e-04
4.14461392e-04	6.85099076e-05
2.56883504e-04	1.87753336e-04
1.23170248e-04	1.59556337e-04
1.00544130e-04	1.56464721e-05
1.52619803e-04	-4.98628251e-05
2.91788077e-04	1.05482097e-04
2.69946235e-04	1.34824804e-04
1.21521218e-04	2.44245952e-04
1.75678542e-05	1.07786436e-04
5.46435876e-05	-5.92493598e-05
2.42881084e-04	-1.68848550e-04
3.81374528e-04	3.83853730e-05
2.54071085e-04	2.85049988e-04
2.02327774e-05	2.11084101e-04
-2.92841396e-05	-8.03720395e-05
1.24130383e-04	-1.92949854e-04
3.51773662e-04	-1.13785391e-04
3.51013325e-04	1.20132703e-04
1.55502828e-04	2.24869378e-04
8.06766693e-05	5.05080097e-05
1.36348564e-04	-1.23047241e-04
3.18113249e-04	-5.15518186e-05
3.31270392e-04	1.55513029e-04
1.60308453e-04	2.63074238e-04
7.18118827e-05	1.91514249e-04
-3.30339608e-05	-1.81523887e-06
1.38562333e-04	-7.41516560e-05
2.33722662e-04	9.55540145e-06
2.89837248e-04	5.92051656e-05
2.11498322e-04	1.88717109e-04
8.82977838e-06	1.27080042e-04
-8.00633570e-05	-3.09164243e-05
1.51019907e-04	-2.38000299e-04
3.31839256e-04	-1.06208681e-04
3.78666737e-04	5.90010059e-05
1.50446605e-04	2.06357436e-04
-4.83433723e-05	3.78995464e-05
1.25749837e-04	-2.04108830e-04
3.64174222e-04	-6.95947820e-05
3.58041783e-04	1.65901103e-04
1.47904851e-04	3.08778923e-04
-7.26734070e-05	1.09784625e-04
2.95359860e-05	-9.33715055e-05
2.65727198e-04	-1.40231321e-04
3.72618670e-04	3.41145387e-05
3.08018934e-04	1.84625256e-04
9.81511912e-05	2.07683304e-04
-4.90619168e-05	7.87515310e-05
-2.58396867e-05	-7.50197723e-05
1.70459651e-04	-1.17199081e-04
2.97748426e-04	-1.01354002e-04
2.41873524e-04	7.97449175e-05
1.26644896e-04	1.57213726e-04
-6.31899184e-06	-4.50870039e-06
1.26661835e-04	-1.28361688e-04
3.30833689e-04	-1.07634827e-04
4.17603529e-04	9.15897253e-05
2.00271868e-04	2.27950470e-04
-2.60254492e-05	1.72248067e-04
-6.21201907e-05	-1.17688032e-04
2.13748019e-04	-2.37323635e-04
3.86890664e-04	-8.62822999e-05
3.18080420e-04	2.39398039e-04
6.55334443e-05	2.53282342e-04
-7.87437893e-05	1.07131054e-04
-2.00725754e-05	-1.64510071e-04
1.33511843e-04	-1.31698980e-04
1.96343317e-04	-1.64553785e-06
1.30452070e-04	3.11464682e-05
8.68052666e-05	3.31202682e-06
1.28560117e-04	-1.05846731e-04
2.30436242e-04	-1.13455739e-04
2.35216474e-04	-1.62552169e-05
2.79815984e-04	8.20738060e-05
2.25691969e-04	6.96380157e-05
1.05604377e-04	8.92275566e-05
9.99903568e-05	-8.71111188e-05
2.29987592e-04	-1.13062575e-04
3.02821951e-04	-3.10561118e-05
2.91559525e-04	2.10911356e-04
2.35683692e-05	2.43273287e-04
-9.77768141e-05	1.62761935e-05
9.34149939e-05	-2.19300113e-04
2.93308782e-04	-3.57590070e-05
2.79536878e-04	9.06151618e-05
6.30234936e-05	1.67275924e-04
-7.05091807e-05	-1.06192765e-05
6.18973791e-05	-2.34222593e-04
3.25670611e-04	-2.47216580e-04
4.12001827e-04	-7.11099565e-05
3.32105788e-04	1.25435588e-04
1.66376558e-04	1.84951903e-04
9.31069444e-05	3.67701214e-05
1.56971291e-04	-3.24160937e-05
1.84602482e-04	-8.26809628e-05
2.98899016e-04	3.86283718e-05
2.18282192e-04	1.25296036e-04
1.69032501e-04	1.19159566e-04
5.46238443e-05	-6.37041012e-07
1.07177984e-04	-9.01452440e-05
1.78234579e-04	-2.82765104e-05
1.92615291e-04	8.79135550e-05
1.02440536e-04	1.90540581e-04
-6.34228272e-05	2.93218509e-05
-1.37804454e-06	-2.38642169e-04
2.57916632e-04	-2.64910865e-04
3.66677035e-04	-1.10622350e-05
2.77146173e-04	2.12451298e-04
3.01753498e-05	1.53985151e-04
9.80912228e-06	-1.05509307e-05
1.25412509e-04	-2.21012800e-04
3.59338999e-04	-1.13717899e-04
3.18785402e-04	6.81674283e-05
1.47885963e-04	1.21518984e-04
9.01159947e-05	7.49677420e-05
6.62941602e-05	-1.01800688e-05
1.67412130e-04	-5.70327866e-05
1.96337089e-04	-6.28658163e-05
2.00888127e-04	6.61879967e-05
6.64429608e-05	1.01087753e-04
6.86257699e-05	8.09715493e-05
3.53577379e-05	-1.22179379e-04
1.81072915e-04	-1.41651763e-04
2.57178588e-04	-4.08613196e-05
1.98942027e-04	1.45041253e-04
3.18545717e-05	5.95090460e-05
-2.43704035e-05	-6.20856226e-05
1.41095254e-04	-1.68177910e-04
2.98126077e-04	-8.34590392e-05
2.38659151e-04	1.52616529e-04
8.01396382e-05	2.06799334e-04
-8.15751700e-05	-3.43866850e-06
4.62979078e-05	-1.55489892e-04
2.45189440e-04	-1.40293589e-04
3.14560806e-04	8.68888892e-05
1.10475485e-04	1.86705220e-04
-7.96805034e-06	5.23347371e-05
-2.66288589e-05	-5.30485158e-05
1.70547166e-04	-1.76931571e-04
2.15266657e-04	-8.55285034e-05
3.05173948e-04	4.35193215e-05
9.00064624e-05	1.09948160e-04
8.71638622e-06	1.09091205e-04
3.63542058e-05	-1.12211737e-05
5.59821056e-05	-1.60893323e-04
1.87822137e-04	-8.45569884e-05
1.90609018e-04	8.99992010e-05
4.77565009e-05	1.23987338e-04
-6.75761257e-05	-9.84036888e-08
4.60481097e-05	-1.70893793e-04
2.15111169e-04	-9.87025487e-05
2.75611703e-04	7.61865813e-05
7.02099787e-05	1.99758011e-04
-8.61239241e-05	1.47386629e-04
-1.12877984e-04	-9.74671493e-05
2.21795417e-05	-1.89000450e-04
2.57705804e-04	-6.26476831e-05
2.05626682e-04	6.06034810e-05
7.81805211e-05	6.31020157e-05
5.17124936e-05	3.32501440e-05
8.78545761e-05	-6.11625728e-05
1.59014802e-04	-7.08936277e-05
1.67390390e-04	5.20476133e-05
1.66194615e-04	1.06798761e-04
2.18801579e-05	1.49657062e-05
-2.50541234e-06	-3.81320424e-05
5.69250114e-05	-1.92013220e-04
1.39298092e-04	-6.87867432e-05
2.52374099e-04	6.12810618e-05
1.30815461e-04	1.67190083e-04
-4.25058388e-05	8.89282746e-05
-6.22338703e-05	-1.05015024e-04
3.63133440e-05	-1.61986158e-04
1.91260624e-04	-7.82119459e-05
1.83178970e-04	1.77197217e-06
2.82024685e-05	6.23839296e-05
3.39801300e-05	-3.82327562e-05
1.26233077e-04	-1.65399833e-04
2.40519323e-04	-1.06235122e-04
2.27279481e-04	1.04634790e-04
1.11849804e-04	1.54551744e-04
-6.21184445e-05	2.66654151e-05
-1.14151735e-05	-7.37558148e-05
1.51849948e-04	-1.39015261e-04
2.76175473e-04	-4.49424333e-05
2.58000568e-04	1.03469778e-04
5.77004466e-05	1.42940175e-04
-8.38812048e-05	5.12386723e-05
-4.38542265e-05	-5.06987672e-05
9.64879364e-05	-1.46147475e-04
2.10018188e-04	-2.59334702e-05
2.04535667e-04	7.76901870e-05
5.55703227e-05	1.47338451e-05
2.31271406e-06	-1.06591709e-04
1.22706377e-04	-1.36507922e-04
2.18043977e-04	-1.52493347e-04
2.70134071e-04	1.57795657e-05
1.49288142e-04	9.22701583e-05
5.24857242e-05	-4.51948836e-06
4.70296764e-05	-6.07627589e-05
1.83671422e-04	-9.37413133e-05
2.43596907e-04	-3.54054282e-05
1.53268586e-04	6.28551788e-05
4.37325543e-05	5.26529402e-05
-2.81234406e-06	-1.21988833e-05
5.43798924e-05	-8.80209409e-05
1.35865121e-04	-6.63234896e-05
1.24388476e-04	4.02406295e-05
3.17183258e-05	2.32156362e-05
-6.27987247e-05	-3.47480309e-05
7.51680636e-06	-2.08593643e-04
1.23939099e-04	-1.81304553e-04
2.08496756e-04	-5.89951378e-05
1.92043692e-04	1.10279347e-04
9.34531417e-05	1.44936028e-04
-7.80022965e-05	1.04128267e-05
-8.84744441e-06	-1.43842044e-04
1.41188619e-04	-1.26161933e-04
2.45728472e-04	-4.62666576e-05
1.47540035e-04	6.79271761e-05
5.43714086e-05	1.09192508e-04
-3.58100187e-05	3.57323152e-05
-6.72472197e-06	-5.52664496e-05
9.08628353e-05	-2.20011789e-05
8.28723569e-05	3.94612725e-05
7.62241471e-05	6.09953204e-05
-1.67321687e-05	3.69481349e-05
-1.76355297e-05	-5.01208342e-05
1.03007915e-04	-1.38307063e-04
1.75713474e-04	-1.03944854e-04
1.30598142e-04	1.46345454e-04
1.44110145e-05	8.41342335e-05
-7.66713492e-05	-1.26502873e-05
2.96390099e-05	-1.44031379e-04
1.78002258e-04	-1.53618472e-04
2.29996935e-04	3.01778055e-05
1.64380006e-04	8.73269964e-05
1.09758876e-05	6.56714328e-05
4.19309345e-07	-2.13775711e-05
8.54320824e-05	-2.30252972e-05
1.36431801e-04	-2.15116088e-05
1.21937082e-04	9.10784293e-05
1.36354720e-05	1.09905901e-04
-2.43948380e-05	-8.17211112e-05
5.45093062e-05	-1.56409515e-04
1.50233333e-04	-1.19027740e-04
1.79030583e-04	5.30223006e-05
7.54587600e-05	1.60767435e-04
-2.56969834e-05	7.78222384e-05
-8.03159055e-05	-6.22026710e-05
2.83986155e-05	-1.36667906e-04
1.72298212e-04	-9.58724049e-05
1.62872559e-04	7.37446680e-05
3.70236921e-05	7.97389948e-05
-6.89428198e-05	7.27941588e-05
-3.57891513e-05	-8.56642509e-05
1.25702936e-04	-1.03354636e-04
2.27990342e-04	3.70852213e-05
7.88581456e-05	1.49754618e-04
-3.59041660e-05	1.62627708e-04
-3.36206795e-05	4.44401758e-06
1.06849475e-05	-1.42543591e-04
1.10289562e-04	-1.44249498e-04
1.63403471e-04	-4.90637649e-05
9.60446196e-05	3.27250746e-05
-1.63474233e-05	3.55202465e-05
-3.80285892e-05	2.09514983e-05
1.95394605e-05	-6.54561081e-05
7.98133260e-05	-3.88549379e-05
1.29567663e-04	-1.99293572e-06
9.33191768e-06	7.99749760e-05
-1.09829743e-05	3.56719574e-05
2.64681457e-05	-2.73158785e-05
1.30568078e-04	-9.95199225e-05
2.05095115e-04	-2.69586599e-06
6.49024514e-05	1.12259368e-04
-2.02678584e-05	8.33455852e-05
-9.20336897e-05	-5.47307427e-05
3.50957780e-05	-2.01131188e-04
2.10448154e-04	-9.37618388e-05
1.84166129e-04	2.36868473e-05
1.27091362e-05	1.16749281e-04
-5.54456092e-05	-5.19789819e-06
3.40916231e-05	-4.70650521e-05
9.03499822e-05	-9.16944409e-05
1.76350513e-04	-1.33182766e-07
7.03631013e-05	5.89449883e-05
-4.41401608e-05	9.72144262e-05
1.34965167e-05	1.07200785e-05
-8.46622333e-06	-4.88390433e-05
1.29593638e-04	-8.11950813e-05
1.37208204e-04	1.09066168e-05
8.34106031e-05	8.83610483e-05
-8.02342329e-05	8.81392189e-05
-8.34831808e-05	-2.34235467e-05
8.74127145e-05	-1.57519928e-04
1.73201901e-04	-1.12727925e-04
1.52913039e-04	1.60430372e-05
4.32865381e-05	1.39436394e-04
-4.53192188e-05	-3.23062486e-05
7.03712212e-05	-1.72991116e-04
1.36782430e-04	-1.07420943e-04
1.35192342e-04	6.53223615e-05
6.30739378e-05	1.17240401e-04
-4.22560970e-06	2.07895100e-05
-5.68711584e-07	-5.65760311e-05
8.23922455e-05	-7.03294791e-05
1.82492440e-04	-1.64531484e-05
1.30188346e-04	5.35286345e-05
1.27080848e-05	1.04705388e-04
-5.41131431e-06	6.03288208e-05
-1.17137730e-04	-3.23366476e-05
8.35517785e-05	-9.01900421e-05
8.35533574e-05	-9.50395843e-05
1.14626484e-04	-7.55696465e-06
9.67271844e-05	7.44549834e-05
-3.47438436e-05	-2.48328033e-05
-1.11370773e-05	-1.14563787e-04
1.56929396e-04	-1.06342501e-04
2.39240471e-04	-2.46637901e-05
1.09745983e-04	6.89429507e-05
-2.00051400e-05	1.65967831e-05
-5.45236508e-05	-5.75768499e-05
1.04855018e-04	-1.57331946e-04
2.02952695e-04	2.80892200e-05
1.76590649e-04	1.10844579e-04
6.32451192e-05	1.12328438e-04
-1.06403941e-05	5.94975718e-05
2.58973705e-06	-6.47585330e-05
1.07360145e-04	1.18409407e-05
7.98774781e-05	5.97718899e-05
1.46095208e-05	1.14542774e-04
-3.38631289e-05	1.00083580e-05
2.48096057e-05	-2.98154991e-05
7.52626074e-05	-6.70726877e-05
1.23108926e-04	-6.51408918e-05
1.40062562e-04	-4.89292688e-06
1.02130660e-04	1.05621177e-04
-3.61319617e-05	7.42928969e-05
-7.44743738e-05	-6.49056019e-05
4.93693151e-05	-1.39009906e-04
2.28927238e-04	-4.10270586e-05
2.14053478e-04	5.86575843e-05
6.74282637e-05	1.11746114e-04
-1.52676312e-05	3.69767040e-05
4.99687230e-05	-7.55879155e-05
1.55834627e-04	-6.07951843e-05
1.16401658e-04	7.87491226e-05
2.14641386e-05	9.56219592e-05
-4.78509683e-05	-1.22972597e-06
3.67474313e-05	-9.45035717e-05
1.31624707e-04	-8.27582771e-05
1.44209727e-04	-4.21260775e-05
8.65168113e-05	6.17570622e-05
3.83622137e-05	8.73216923e-05
-1.46638567e-05	-9.10525341e-06
3.31593656e-05	-7.27435399e-05
1.16302821e-04	-6.69618457e-05
1.16062525e-04	-3.31650626e-05
1.06559906e-04	1.10389032e-04
7.94226944e-05	9.18829028e-05
-1.18806245e-04	6.47272464e-05
-4.63079195e-05	-3.03142042e-05
1.44743128e-04	-1.05886684e-04
1.46388775e-04	4.86459248e-05
5.45917064e-05	1.27991923e-04
-1.03069717e-04	9.04824337e-05
-2.40829031e-05	-9.84006983e-05
9.33386400e-05	-1.13075919e-04
2.39176166e-04	5.28883538e-06
8.16211250e-05	8.68692514e-05
-6.62589082e-06	6.93842157e-05
-2.07840058e-05	-2.53424641e-05
2.36608012e-05	-5.56114319e-05
1.24825921e-04	-3.61927523e-05
1.08234999e-04	3.54223484e-05
3.56326746e-05	6.65416155e-05
1.70138555e-05	1.60453601e-05
4.47255916e-05	-2.75826151e-05
3.01679975e-05	-6.78229189e-05
9.89607870e-05	5.12197948e-06
4.54330366e-05	2.98493178e-05
1.67708131e-05	3.96374162e-05
-4.88998194e-05	1.52176262e-05
-5.69951044e-05	-1.03619706e-04
1.01700381e-04	-1.64387064e-04
1.91286061e-04	-9.43638588e-06
1.26803832e-04	1.17847827e-04
-3.06850998e-05	1.20178527e-04
-1.35615599e-04	-2.11531733e-06
-1.37175120e-05	-7.62255513e-05
1.73959474e-04	-3.51169474e-05
6.72568422e-05	7.04162157e-05
-1.35070604e-05	5.90115305e-05
-9.88890133e-06	2.79306223e-05
-1.86155085e-05	-8.42504887e-05
4.21848235e-05	-4.79519367e-05
5.40551264e-05	1.22765032e-05
2.90751650e-05	4.21146360e-05
-1.64711273e-05	5.56037849e-05
-9.33442789e-06	2.81113262e-06
-2.20173060e-05	-9.60449688e-05
4.67246755e-05	-8.31748112e-05
1.23885286e-04	-4.24336067e-05
1.00573598e-04	4.76502173e-05
1.70268686e-06	7.05261191e-05
-4.95290842e-05	1.68475162e-05
5.50396253e-05	-9.88608153e-05
9.15666169e-05	-6.79899895e-05
7.43175769e-05	7.58862298e-05
-1.30080043e-05	8.45832183e-05
-2.04626922e-05	-6.73134127e-06
-1.79565359e-05	-5.48532189e-05
1.01674341e-04	-3.69113332e-05
1.30229935e-04	4.97495130e-05
5.28512464e-05	8.30942226e-05
-6.43983585e-05	3.75337113e-05
-6.38768543e-05	-7.66756129e-05
-3.17294107e-05	-6.57663259e-05
5.40304682e-05	-6.80471567e-05
9.41822800e-05	2.38691973e-05
7.09025771e-05	1.31986490e-05
8.73123327e-07	5.69613985e-06
1.57329341e-05	-7.49192914e-05
3.21380030e-05	-5.05510179e-05
1.55521222e-04	-4.61277486e-05
1.04309496e-04	5.53459722e-05
3.66605855e-05	1.04600251e-04
-4.51653323e-05	9.35286334e-06
2.88199190e-05	-1.07629079e-04
1.21626508e-04	-9.60335383e-05
1.50614796e-04	4.20870165e-05
7.45237339e-05	1.74656874e-04
-1.05758609e-05	7.27840161e-05
-2.83543013e-05	-1.25496254e-05
7.43120472e-05	-1.19738754e-04
1.09237633e-04	-3.64607549e-05
5.87555332e-05	3.03497072e-05
1.34466482e-05	4.09041095e-05
-8.69722498e-07	-4.29221182e-05
4.74213921e-05	-1.31303881e-04
8.96199563e-05	-5.73224788e-05
1.43976533e-04	-9.02054308e-06
4.98254267e-05	5.88551447e-05
-1.90747305e-05	1.96876208e-05
-5.25157884e-06	-2.29802645e-05
7.55451547e-05	-1.29028194e-04
1.30876113e-04	-5.54746694e-05
1.41265744e-04	-2.16037406e-05
1.36970353e-04	9.23631960e-05
2.17485358e-05	7.40532705e-05
7.75325134e-06	2.24078358e-05
4.76813111e-05	-4.20723700e-05
5.05786484e-05	-3.94856906e-05
8.09201229e-05	1.99064325e-05
2.23740990e-05	3.74470401e-05
1.41817509e-07	-4.35000620e-05
9.42808038e-06	-1.28476095e-04
6.76481286e-05	-4.58179493e-05
1.16077274e-04	1.73220724e-05
3.02256703e-05	1.21441437e-04
-1.44300002e-05	-3.00341198e-05
-2.66537063e-06	-5.64039074e-05
7.52898923e-05	-9.05815759e-05
1.17275835e-04	4.08542510e-05
1.16186857e-04	6.69446454e-05
9.46097061e-05	7.01610697e-05
1.00253092e-05	4.02669320e-05
-1.84036471e-05	-4.24185673e-05
5.03455194e-05	-8.91661111e-05
6.75974661e-05	-3.76135722e-05
4.91175597e-05	9.61299957e-05
-1.79017352e-05	1.79196504e-05
-3.43944921e-05	-3.40268562e-05
-2.37680797e-06	-1.61512260e-04
6.17005862e-05	-8.69847499e-05
1.59365620e-04	-4.47533130e-05
3.22866690e-05	9.82228594e-05
-7.20158350e-05	6.26961046e-05
-6.25233442e-05	-7.05620696e-05
4.62060671e-05	-1.12568312e-04
1.19022225e-04	-2.75758430e-05
9.47360531e-05	3.82700964e-05
2.27640521e-06	2.47165717e-05
-2.83294212e-05	-3.53965806e-05
8.00477937e-06	-2.77307590e-05
5.15850115e-05	-2.78109837e-05
6.03324370e-05	-2.07166249e-05
-2.09426235e-05	8.00328780e-06
-8.03005096e-05	1.07898868e-05
-4.13374837e-05	-2.65038489e-06
2.63056172e-05	-1.11472073e-04
1.16096213e-04	-6.09345225e-05
8.26027754e-05	-2.90985827e-05
4.26142833e-06	5.47105192e-05
-5.00914612e-05	-4.52421591e-06
-5.73208090e-05	-5.91680946e-05
5.01057584e-05	-9.27927977e-05
7.45218931e-05	-2.23295974e-05
1.59266619e-05	6.23080632e-05
1.02920594e-05	4.28722160e-05
-3.77808574e-05	-2.73958176e-05
-1.01148489e-05	-3.83958832e-05
5.25611176e-05	-9.56112126e-06
2.34499821e-05	6.35892065e-05
-2.55392151e-05	8.45924951e-05
-1.63195818e-05	-2.16547160e-05
-4.77629765e-05	-6.23309461e-05
3.60715567e-05	-1.33781170e-04
9.88713437e-05	-1.04479477e-04
1.18566604e-04	4.46869453e-05
-6.27024065e-07	1.51800996e-05
-5.05605531e-05	-8.28206794e-07
-5.68446267e-05	1.44876749e-05
8.18496555e-05	-5.85660819e-05
7.69485196e-05	-1.93581618e-05
9.46177897e-05	8.04327719e-05
-3.41207269e-05	-2.12990581e-05
-1.17922555e-05	-8.58526400e-05
2.39093551e-05	-5.29839490e-05
7.63115459e-05	-6.10446514e-05
6.87764550e-05	2.69182783e-05
-2.06508275e-06	7.51711632e-05
-6.34056123e-05	-3.88182307e-05
-4.48807623e-05	-9.38379308e-05
1.49625957e-05	-9.32918119e-05
1.00108984e-04	-5.44453469e-05
4.07534098e-05	7.65250934e-06
2.80000677e-05	-9.92031710e-06
-2.44351431e-05	-1.30899052e-05
1.05574045e-05	-3.55711563e-05
4.04720085e-05	-7.40555261e-05
4.89504018e-05	-3.31258088e-05
2.40052341e-05	2.88528208e-05
-4.33031855e-05	3.46578636e-05
1.57693776e-05	-8.41514557e-05
5.29916579e-05	-7.44723220e-05
1.19575336e-04	2.94934125e-07
9.08974616e-05	4.40599033e-05
2.01911153e-05	1.04163722e-04
-5.41797272e-05	-5.74674850e-05
-2.22936687e-05	-7.03309706e-05
4.77693320e-05	-1.22084311e-04
9.17210637e-05	-6.65787093e-06
3.35449149e-05	4.47314014e-05
2.42348979e-05	-2.40853806e-05
3.57144090e-05	-3.41382947e-05
3.43246793e-05	-4.42158926e-05
4.67479840e-05	-1.52834355e-06
1.17336764e-04	2.79385531e-05
-1.43513671e-05	8.19335328e-05
-1.96641722e-05	-9.81268659e-06
-5.75043523e-05	-2.85401020e-05
7.95122323e-05	-9.64396531e-05
1.41095341e-04	-3.68101755e-05
1.00111080e-04	8.58441927e-05
1.05554427e-05	3.62905994e-05
-5.76312996e-05	-2.07783305e-05
2.02460797e-05	-5.48127537e-05
4.72724350e-05	-6.70547015e-05
7.40245305e-05	-1.24075659e-05
9.23164989e-05	1.03966522e-05
-2.40752161e-05	-5.25613268e-06
-6.70936606e-06	-5.03426018e-05
9.32581388e-05	-6.76358031e-05
3.17879603e-05	2.94675719e-05
3.97118129e-05	8.49455682e-05
-4.63429787e-05	-1.00789084e-05
-8.04306728e-06	-8.12022554e-05
2.52013324e-05	-9.45363136e-05
7.83892974e-05	-7.83157229e-05
1.38488263e-04	1.56906135e-05
6.36474870e-05	2.79166798e-05
-1.79920498e-05	1.90425017e-05
-2.54817824e-05	-4.12284535e-05
-4.79002983e-06	-1.77960974e-05
9.90659319e-05	-8.17823020e-05
9.23816115e-05	-1.67109338e-05
1.36164490e-05	2.57535157e-05
-7.79092989e-06	1.98203052e-05
-2.65137696e-05	-1.18596661e-04
6.22272128e-05	-2.95475656e-05
6.96280404e-05	2.47793287e-05
2.96656872e-05	4.32068919e-05
4.54626643e-05	4.20602646e-06
-3.77630204e-06	1.51413033e-05
2.79686610e-05	-4.24177488e-05
1.09724700e-04	-1.55134912e-05
5.67774987e-05	6.21282925e-06
-1.92015032e-05	-6.48950800e-06
-1.75942023e-06	-4.08925371e-06
4.27034029e-05	1.37261595e-05
5.92597007e-06	-2.20150669e-05
6.49174399e-05	1.92307834e-05
4.18017553e-05	-1.14243458e-05
1.98944072e-05	4.45190162e-05
2.81975481e-05	-2.11637143e-05
7.83506675e-06	-3.82770559e-05
7.81068738e-05	-4.22448757e-05
6.53939351e-05	4.67246937e-05
6.12571748e-05	2.64219307e-05
-2.67217019e-05	2.89831969e-05
-6.88459404e-05	-2.26769207e-05
1.76272461e-05	-7.81498675e-05
1.09567234e-04	-4.62780008e-05
1.19317148e-04	1.59011870e-05
2.28873632e-05	3.94744457e-05
-1.94567183e-05	5.25279029e-05
4.32114684e-05	-2.27323271e-05
1.20445613e-04	-2.71673562e-05
6.68772991e-05	2.67609175e-05
7.52465121e-06	2.70546698e-05
-2.68070780e-05	1.82834046e-05
-5.75929334e-05	-6.48900968e-05
2.34029103e-05	-4.19442731e-05
9.11560346e-05	2.77847721e-06
1.05261315e-04	-5.87530521e-05
7.49027095e-05	4.81295574e-05
7.32728222e-06	5.89341507e-05
-1.26147803e-04	-7.41758413e-07
9.08181391e-06	-7.30600295e-05
3.66549248e-05	-1.56450842e-05
9.11197785e-05	-7.99795016e-05
2.88568990e-05	4.00252138e-05
1.25128554e-05	2.54530059e-05
-4.45352707e-05	-1.68804763e-05
4.35047696e-05	1.24985436e-05
7.57632224e-05	1.65041038e-05
4.74443441e-05	9.00706073e-06
-9.71644040e-05	3.01368673e-05
-4.65343255e-05	-1.17289674e-05
2.32928742e-05	-7.67190504e-05
5.85102171e-05	3.56326891e-05
5.03276169e-05	3.84079249e-06
-4.16773109e-05	6.17970509e-05
-7.36749935e-05	7.25786376e-05
-5.86992974e-06	-3.78696168e-05
2.89968211e-05	4.95146560e-06
5.75152080e-06	3.63977160e-05
5.98860315e-05	6.44728862e-05
5.00087299e-06	4.31970439e-05
-1.29549935e-05	-1.00031166e-05
-4.33863806e-06	-3.11055810e-05
8.40857974e-05	-5.94062440e-05
8.33029844e-05	2.19845260e-05
4.03332670e-05	2.31269460e-05
-8.24381859e-05	4.30939144e-05
-7.86118253e-05	-4.33249552e-05
-5.62862915e-05	-9.23377011e-05
2.66263996e-05	-1.10265995e-04
4.52798813e-05	2.07400262e-05
4.52495442e-07	8.59657230e-05
-3.56368491e-06	-1.33050671e-05
-6.15758690e-05	-3.26611189e-05
4.33766108e-05	-6.37995181e-05
6.80506491e-05	-1.19756460e-05
-6.22798761e-05	2.67467822e-05
-8.53777892e-05	-1.05530817e-05
-1.98724501e-06	-3.23336062e-05
-1.61632579e-05	-1.69760078e-05
5.05901407e-05	-3.68781621e-05
2.31765171e-05	5.01457325e-05
-2.12492050e-05	-4.61430172e-05
-6.33612217e-05	2.76915107e-05
-6.72638125e-05	-4.87813741e-05
-3.37856000e-06	-4.00094723e-05
6.23445012e-05	-6.50444927e-05
2.20502297e-05	6.86961266e-06
3.17379672e-05	1.48051340e-05
-4.76368659e-05	-3.94806120e-05
2.52493373e-05	-5.77671271e-05
5.27373013e-05	-2.94472429e-05
1.70773055e-05	-3.77950482e-06
2.77187191e-05	7.09145024e-05
-3.86832653e-05	-3.75008749e-05
-4.68222279e-05	-5.54990766e-05
3.56890268e-05	-6.78533688e-05
7.29959938e-05	1.36771996e-06
7.88103935e-05	3.93031951e-06
-2.05361976e-05	4.55097797e-05
-2.26507418e-05	4.85657292e-05
-2.13952353e-05	-2.71750941e-05
-7.50055915e-05	-5.94496087e-05
2.10221006e-05	-7.28405485e-06
-1.85195531e-05	-5.99534760e-05
3.59167097e-05	-5.37730921e-05
-2.25974873e-05	-3.45968829e-06
2.69801003e-05	-3.52370771e-05
7.86732344e-05	-3.30903094e-05
5.75955492e-05	-3.07001210e-06
3.14814606e-05	-2.00531213e-05
-3.03827146e-05	-1.90786959e-05
-5.04564086e-05	-5.87593458e-05
2.13414551e-05	-6.16949183e-05
8.17472683e-05	-1.79981580e-05
1.29548367e-04	6.42931191e-05
1.91908530e-05	2.83775189e-05
-4.82931064e-05	-1.10938072e-06
-5.80238884e-05	-7.04799677e-05
2.17082161e-05	-7.81887284e-05
6.27069967e-05	-5.91595963e-05
2.67165888e-05	5.96031059e-05
-2.78974608e-06	7.72308249e-06
7.91322054e-06	-6.52950330e-05
-5.66533345e-06	-5.22441951e-05
5.95836282e-05	6.19469574e-06
8.06830431e-05	-2.50714002e-05
-1.51172765e-06	3.69048962e-07
3.67188331e-05	-1.48921326e-05
-6.00375824e-05	-9.38951962e-06
7.30803367e-06	-4.45820806e-05
2.02721349e-05	5.37379537e-06
1.13171867e-04	5.36480948e-05
1.59339143e-05	8.66885421e-06
-2.09778373e-05	4.26277948e-05
-1.22482288e-06	-6.13762531e-05
4.59474104e-05	-4.59585244e-05
5.28279161e-05	2.80099084e-06
7.97827306e-05	4.61998497e-05
-5.09340953e-06	2.56114035e-05
-4.67332211e-06	-4.78686088e-05
6.92595713e-05	-7.50608378e-05
6.84155457e-05	-2.68279782e-05
8.75171609e-05	6.43088715e-05
-1.37639495e-06	4.50594998e-05
-3.45670269e-05	-5.64341144e-06
2.59767967e-05	-2.52574555e-05
1.14139084e-05	-3.13209857e-05
5.71337223e-05	-3.39846474e-06
1.55687831e-05	1.40666407e-05
1.03080938e-05	7.09226078e-05
-5.70951634e-05	3.79364246e-06
5.98693487e-06	-8.85166628e-06
5.83210567e-05	-8.70195618e-06
9.16583231e-05	6.86788417e-06
6.23888336e-05	1.99898550e-05
-8.04678348e-05	2.08563888e-05
-3.01045620e-05	-4.27614395e-05
6.47867637e-05	-4.75874231e-06
1.13482465e-05	8.37745029e-06
5.33082202e-05	9.02803076e-05
-4.41088923e-06	7.57628150e-05
2.77792901e-06	3.97414369e-05
-1.37208490e-05	-4.90058337e-05
7.69909602e-05	-4.22964731e-05
4.45042533e-05	4.47119710e-05
-1.14405047e-05	7.43815981e-05
-9.64366882e-06	8.12247163e-06
9.35727439e-06	1.22687161e-05
5.65000482e-06	1.73452427e-05
5.20382782e-05	2.40102709e-05
-3.08511244e-06	5.08483354e-05
5.90616946e-06	4.70289961e-05
3.67580014e-06	2.12774939e-05
-2.05156703e-05	-5.03435112e-05
2.29591096e-05	-3.08901617e-05
3.34966126e-06	-3.53554206e-05
2.48506312e-05	-9.87812655e-06
1.83043085e-05	3.53331889e-05
-3.59265578e-05	4.25988110e-05
1.47764204e-05	-3.90968999e-05
9.15029595e-05	-1.91574527e-05
5.53013670e-05	-8.72895544e-06
-4.34398062e-05	5.59341752e-05
-4.04008097e-06	1.38980904e-05
6.17922706e-06	-4.44712387e-05
3.07924602e-05	-1.59594420e-05
8.15101885e-05	-2.87086004e-06
1.15341654e-05	6.42894083e-05
-7.71193299e-06	3.24467619e-05
-3.50286573e-05	1.18027156e-05
-8.81129527e-05	-2.76927130e-05
4.77038520e-06	-3.77998840e-05
5.02157927e-05	1.29852924e-05
-1.18670141e-06	6.70520458e-05
-3.47336463e-05	2.50238954e-05
-2.61804471e-05	-3.40489969e-05
-1.18219532e-05	-6.17069745e-05
8.62612724e-05	-4.47684361e-05
6.00965286e-05	3.75581985e-05
-1.52999874e-05	4.86660538e-05
-4.92235495e-06	3.03902630e-06
-4.00798381e-05	-2.87773564e-05
1.06665884e-05	-3.03923334e-05
3.87972395e-05	-1.19527704e-05
2.70327182e-05	5.65713381e-05
-4.55033878e-05	3.29605100e-05
-7.15305432e-05	2.36997585e-06
1.52452067e-05	-4.44884681e-05
2.49117074e-05	-3.90884670e-05
-5.38393542e-05	2.77392337e-05
-2.85100923e-05	4.99919406e-05
-8.01014976e-05	9.58351120e-06
-4.09428903e-05	-2.81904322e-05
-5.06649376e-05	-5.12588849e-05
1.77956172e-05	2.53449780e-05
3.15374564e-05	1.15105040e-05
-4.21210825e-05	3.11392796e-05
-5.89535994e-05	-4.27759369e-05
-1.24447160e-05	-2.82929377e-05
2.07028861e-05	-1.93132691e-05
5.06415745e-06	5.41540503e-05
3.17467784e-05	7.53824424e-05
-7.06299033e-05	-7.29764361e-06
-7.32892222e-05	-9.70825931e-06
-4.38166571e-05	-9.82194797e-06
-3.67955136e-06	-5.23221615e-06
-3.23125550e-06	-3.09251227e-05
1.41418486e-05	-3.53032647e-06
-4.09713066e-05	2.51538077e-05
-3.65058513e-05	-1.53034744e-05
9.50144386e-06	-4.66184101e-05
5.17137269e-05	-2.50626690e-05
3.07573100e-05	-2.11017232e-05
-5.92191191e-06	2.03431518e-05
-5.03055489e-05	1.48939234e-05
-9.19817467e-05	-5.66261770e-05
5.39661160e-05	-5.07061923e-05
4.20142533e-06	-2.65115596e-05
1.29150328e-06	-4.33701916e-06
-3.94430390e-05	-3.95764073e-06
-1.09847033e-05	-3.55811026e-05
1.13128444e-05	-5.53619066e-05
1.97813733e-05	2.73242549e-05
-6.13619113e-06	1.43213438e-05
4.14273381e-05	1.69218365e-05
-2.49846307e-05	-1.94489367e-05
1.38907599e-05	-8.77804559e-05
3.74312231e-06	-1.85449753e-05
7.27895895e-05	-4.09378226e-05
-3.94570525e-05	1.11743238e-05
6.40230246e-06	2.11044153e-05
-4.52354361e-05	-4.31904737e-05
-3.08138005e-05	-1.03302533e-04
-2.36185242e-05	6.01670654e-05
2.16182689e-05	-2.59713906e-05
2.83836580e-05	1.70366366e-05
9.20480670e-06	4.09043059e-05
7.05867114e-06	-3.48851017e-07
-1.43470088e-05	-3.99989040e-05
1.98714224e-05	-4.34379763e-05
1.32903333e-05	4.28069980e-05
1.85486351e-05	-1.27054946e-05
-8.88219620e-06	-9.45319334e-06
-1.10897672e-05	-9.73426868e-05
8.77861748e-05	-7.48072271e-05
5.58070387e-05	-1.53582714e-05
4.54405290e-06	-2.99788662e-05
-1.77923266e-05	2.62559042e-05
2.31378981e-05	-5.56475061e-05
6.11968862e-05	-8.89965449e-05
-1.77468664e-05	-2.39033689e-05
1.69546984e-05	-2.65569361e-06
5.79573243e-05	9.16003592e-06
-2.35875959e-05	-2.92046607e-05
-2.54673269e-05	-6.68856592e-05
3.76596035e-05	4.91542596e-06
3.41398263e-05	6.77557910e-06
-3.50216105e-05	-1.48475974e-05
7.82063944e-06	2.50361809e-05
3.51941162e-05	-3.50338996e-05
-7.14085400e-06	-4.52452150e-05
2.49206423e-05	-1.01949236e-05
7.20018943e-05	1.24111048e-05
-2.61445530e-06	4.88245823e-05
-1.76701906e-05	4.41077827e-05
-4.57830247e-05	-9.01278690e-05
2.86853610e-05	-7.92752180e-05
1.04674036e-04	1.18515400e-05
1.99249371e-07	3.63846375e-05
-2.26906650e-06	-1.20518525e-05
-4.14842361e-05	-5.82518333e-05
-5.05155185e-07	-5.26230069e-05
4.88037876e-05	3.08057752e-05
4.36036753e-05	3.63165818e-05
4.40898548e-05	1.34632592e-06
4.51557207e-06	5.65827249e-05
-6.79602890e-05	-1.04851460e-06
3.22332780e-05	-3.60720041e-05
4.71840722e-05	-7.77547393e-05
-7.78440517e-06	-6.77724456e-05
2.20733073e-05	4.09618879e-05
4.13909875e-05	-2.35655716e-05
-4.75498673e-05	-4.19247499e-06
1.52062084e-05	-2.08959773e-05
3.49067304e-05	-8.45108734e-05
6.81891615e-05	-7.98610199e-06
2.39861547e-05	1.19381239e-05
-5.17220815e-06	1.51320974e-05
-1.19748602e-05	-3.10158975e-05
7.75641674e-05	-9.61132719e-06
2.42234328e-05	1.43253146e-05
-2.96720755e-05	1.44280530e-05
1.44463656e-05	2.79589549e-05
-1.15238163e-05	-8.40804714e-05
-1.42103336e-05	-3.32102063e-05
5.25806790e-05	-6.79892128e-06
6.43889362e-05	3.00464962e-05
-6.11993819e-05	3.47298228e-05
-1.58356252e-05	1.83512984e-05
-2.66159295e-05	-1.38112478e-06
8.38578035e-06	-1.39958347e-05
6.94712435e-05	5.71298733e-06
-2.25965305e-05	-2.33107403e-05
-2.76272494e-05	5.15686443e-05
-1.51277891e-05	-1.69427894e-05
-6.87018746e-06	-7.39446987e-05
2.21604150e-05	-3.35317200e-05
-1.00121924e-05	1.36010494e-05
-3.99472337e-05	2.14706433e-05
-2.91390716e-05	2.73263577e-05
-4.04812781e-05	-2.14945157e-05
1.00548332e-05	-6.98081130e-05
1.31313743e-06	2.80658442e-05
1.66837635e-05	3.77273172e-05
-4.73334148e-05	2.04959415e-05
-2.92272925e-05	7.57212183e-06
-2.71186072e-05	-1.49301941e-05
-9.72829275e-06	5.01829054e-05
6.53882216e-06	3.52153511e-05
-4.04100538e-05	5.20920912e-05
-1.69513169e-05	9.37789082e-06
-4.48502033e-05	-5.74671249e-05
-5.97852431e-06	1.33867911e-06
1.55630405e-05	-1.96409910e-05
4.07568150e-05	2.61845853e-05
4.41795601e-05	2.14191514e-05
-1.50036722e-05	5.20296708e-05
-3.61571110e-05	-2.91682645e-05
8.25739062e-06	-4.63236902e-05
5.14073181e-05	-9.82721031e-06
1.45037520e-05	-1.58552248e-05
-4.28536368e-05	5.17943954e-05
-7.43346827e-05	-7.45135039e-05
-5.83948495e-05	-1.23311547e-05
4.81477628e-07	-1.67948310e-05
-6.35763718e-06	4.03164559e-05
-5.17312146e-05	4.92355284e-05
-2.71156659e-05	-4.37658491e-05
-9.11831012e-06	1.78513005e-06
4.35786242e-05	2.65398667e-05
3.88735607e-05	-1.59893898e-06
2.27140808e-05	6.84432689e-06
-7.32394255e-07	3.15963662e-05
-4.24172940e-05	7.48359707e-06
-2.67810246e-05	-5.38182794e-05
-3.30019247e-07	-7.10082022e-05
-9.45639385e-07	1.66753453e-05
-1.90753199e-05	5.12926490e-05
-2.18345267e-05	8.37099287e-06
-2.80929657e-06	-2.25136555e-05
-1.51480654e-05	-3.46629349e-05
1.01294081e-05	-6.55131007e-05
4.67311293e-05	-2.18335990e-05
-2.90988510e-06	-6.93935090e-06
-7.04772392e-05	-5.29610552e-05
-5.98240513e-05	-1.21329642e-04
1.64622870e-05	-6.10553980e-05
4.55877198e-05	2.17572506e-05
9.68687618e-06	2.05334945e-05
-5.24727402e-05	4.20043798e-05
2.87384955e-06	3.03248112e-06
4.13972084e-05	-3.94713788e-05
8.61913941e-06	1.32215814e-06
3.80628649e-06	-1.30847029e-05
-2.36467804e-05	-2.95144528e-05
-4.90155289e-05	-6.13395532e-05
-4.58370851e-05	-5.31892001e-05
-2.35847165e-05	-4.28621206e-05
4.02652222e-05	-9.44863223e-06
1.74962297e-05	1.77982201e-05
-1.76212179e-05	3.54496406e-05
-2.76177252e-06	3.29735849e-05
-6.86593121e-05	-2.90175558e-06
-1.55034177e-05	-6.03570152e-05
8.01207279e-05	-5.27061238e-05
9.26086504e-05	4.91051105e-05
-5.90538039e-05	-1.56747865e-05
-2.28660174e-05	-3.33814241e-05
2.96296057e-05	8.06140542e-06
1.24052676e-05	1.11889140e-05
-1.43898978e-06	6.91194582e-05
-4.53289904e-05	3.78853620e-05
-4.04320162e-05	-7.45998204e-06
-4.51581145e-05	-4.18855525e-05
8.09670746e-06	-4.57812021e-05
-1.54320660e-05	-4.64289224e-05
6.49285539e-06	4.13352900e-05
3.26358240e-05	1.57389986e-05
-2.98295527e-05	2.81175235e-05
-5.54523722e-05	-2.92018485e-05
-4.99166708e-06	-4.05107057e-05
1.77615057e-05	-1.10318979e-05
-1.50802862e-06	3.26083318e-05
6.75981255e-06	-4.25647750e-06
-3.97614058e-05	-5.93039185e-05
1.72752734e-05	1.90417850e-05
5.77825049e-05	8.32060141e-06
-8.32188562e-06	2.72679099e-05
-4.75621237e-05	4.99397865e-05
-6.81510282e-05	4.19811149e-05
-4.03051599e-05	-1.68072584e-05
3.14581921e-05	-4.90279563e-05
3.01029504e-05	-2.79260094e-05
2.60349152e-05	3.39327235e-05
-4.91754618e-05	2.68512122e-06
-8.95141966e-06	1.69476298e-05
3.65953292e-06	-3.29035320e-05
-4.23854508e-05	-3.34467259e-05
7.41997565e-06	-1.52485372e-05
-3.41865962e-05	5.53439077e-06
-1.60958916e-05	-4.02449541e-06
-3.41552040e-05	2.29308753e-05
5.15483989e-05	-2.00021314e-05
-2.24930118e-05	-3.29176401e-05
2.68296990e-05	-3.85080166e-05
-8.75497353e-05	4.82503237e-05
-1.53347173e-05	7.59887143e-06
-7.48224847e-05	-7.12476467e-05
-9.39850179e-06	-5.25335854e-05
3.20461149e-05	-1.26425193e-05
-3.26775007e-05	3.73103248e-05
-5.10629761e-05	-4.28990461e-05
-6.50460133e-05	-4.04605962e-05
1.63459081e-05	-2.52927020e-05
4.23100573e-06	-5.43831557e-05
-1.14739396e-06	-2.92794066e-05
4.16045077e-06	5.36308326e-05
-4.03834056e-05	-1.63605837e-05
-1.20182449e-06	-6.80919620e-05
6.06112226e-05	-2.19598478e-05
5.78844556e-05	-1.34942911e-05
1.09700595e-05	5.92006909e-05
-1.73409826e-05	2.87754447e-05
-4.42444798e-05	-1.77608781e-05
-2.35449570e-05	-4.46340237e-05
3.46020897e-05	-3.46594861e-05
3.98702832e-05	-3.02641456e-06
2.09415375e-05	-6.41250153e-07
-3.36437333e-05	5.66340932e-05
8.36571417e-07	-4.93803891e-05
1.10762903e-05	-6.33860036e-05
-1.96219371e-05	-3.43088977e-05
-9.10833114e-06	8.20608329e-06
2.55841551e-05	-1.05355130e-05
-1.80304778e-05	1.91007221e-05
3.17104059e-06	-6.94101909e-05
4.85877717e-05	1.30257104e-05
1.34684087e-05	2.51294823e-05
-8.63274727e-06	-2.18935111e-06
-2.73179649e-06	6.26759720e-06
6.91048081e-06	-4.64028817e-05
-3.79322737e-05	-6.20893752e-06
-3.60413651e-06	-2.32923267e-05
8.27611439e-06	7.39959651e-05
-4.86205099e-05	-6.28518501e-06
-3.09672323e-05	2.79092819e-05
1.49087491e-05	-5.36995649e-05
-2.46159234e-05	-2.62609428e-05
4.18044219e-05	4.13025009e-05
1.12868292e-08	3.45299886e-05
1.95630400e-06	5.76811271e-06
-1.75037385e-05	-7.00656237e-05
-3.52689094e-05	3.00588072e-05
2.34581057e-05	-3.67930916e-05
8.57873674e-05	2.38625544e-05
3.87502114e-05	4.33439673e-05
-4.13942143e-06	9.58361943e-06
-1.88218801e-05	3.85266503e-07
7.55526162e-06	1.77788315e-05
-3.46979468e-05	-3.19152859e-05
-9.99099029e-06	-1.79770941e-05
-4.61500385e-05	6.42384548e-05
-1.07689511e-05	1.04921201e-05
-7.07503386e-06	-1.35273640e-05
-1.32954528e-05	1.00243733e-06
-3.66535896e-05	6.38269848e-05
-5.24765164e-05	3.20453837e-05
-4.16920229e-05	-5.87330851e-06
-2.00444374e-05	-9.17196667e-06
-3.29485338e-05	-1.65358506e-05
2.37476852e-05	2.87441653e-05
6.64617755e-06	-3.06340662e-05
-3.16314363e-05	5.26414187e-05
-5.29321769e-05	-6.42751638e-06
-2.81693156e-06	-4.08569031e-05
2.09491755e-05	1.06040970e-05
3.93538994e-06	3.39269491e-06
-3.85428793e-05	3.03087982e-05
-7.79486727e-05	6.00087333e-06
-3.70973648e-05	-2.51818856e-05
2.57537758e-05	-2.69314387e-05
1.50867413e-06	6.70490954e-06
1.91268809e-05	-3.01900982e-05
1.36399331e-05	-4.48539777e-06
-2.95192740e-06	-2.01947878e-05
-6.53922762e-05	1.21393750e-05
5.37590768e-06	-9.83825612e-06
-1.36157587e-05	-1.66028622e-05
-3.58694842e-06	2.79462038e-05
-2.34235413e-05	3.26439767e-05
-5.77181927e-05	1.09866123e-05
-9.78338903e-06	-2.30920450e-05
1.21978283e-05	2.06899063e-06
-2.03260497e-05	-1.60145846e-05
-4.94547858e-05	5.61344859e-05
-8.95191552e-05	1.47119408e-05
-6.67911590e-05	-4.20147626e-06
-3.42646345e-05	-1.03951515e-05
3.93415685e-05	-4.13558628e-05
-2.11597253e-05	1.93341784e-05
-4.18672789e-05	2.88338124e-05
-3.38647078e-05	2.34265026e-05
1.30890812e-05	-5.38110144e-05
1.15400044e-05	-2.86556933e-05
-3.72411841e-06	-3.03653615e-05
-5.95075107e-06	3.70264388e-06
-4.54227556e-05	5.10581849e-05
-1.06067047e-04	-3.65847154e-05
1.76911199e-05	-1.23709233e-05
5.93426466e-06	4.53642206e-05
1.25438492e-05	1.11186037e-05
7.01898989e-06	5.69742260e-05
-3.19070605e-05	-1.39036847e-05
-3.50808477e-05	-1.08670036e-04
3.95566531e-05	-8.63455061e-05
3.92796210e-05	1.00753405e-05
1.68801853e-06	4.25982835e-05
-7.25221398e-05	4.19572825e-05
-3.60212216e-05	-1.86304351e-05
-1.47405844e-05	-2.39138208e-05
-1.47078945e-05	-6.37586709e-05
1.17572754e-05	-7.61745832e-06
1.21298917e-05	-1.29073514e-05
-2.31624290e-05	-4.73380787e-05
-2.67437390e-05	-4.17798765e-05
-1.48870113e-05	1.98004682e-06
4.11678730e-06	2.13145740e-05
1.43416391e-05	4.31663429e-05
2.39163401e-05	-2.51168531e-05
2.76969295e-05	-9.00261330e-06
-2.24975538e-05	-4.62189291e-06
2.33148403e-05	-2.30525038e-05
2.59679491e-05	2.05928864e-05
2.73800979e-05	1.95215489e-05
2.45511092e-06	3.37387719e-05
-2.60456545e-05	-4.89805689e-06
4.23583260e-05	2.54721817e-06
-7.62677382e-06	5.92744664e-06
-8.10453457e-06	-1.64637095e-06
-6.03647240e-05	-1.30309509e-05
-1.26305004e-05	-6.48591185e-06
-3.83918905e-06	-1.97720169e-06
6.69787623e-05	2.12682135e-05
5.06156084e-06	4.81769530e-05
-6.54918040e-06	-4.57845636e-06
-6.47534544e-05	4.76820424e-05
2.91971537e-05	-1.12308953e-05
-2.03936615e-05	3.27600537e-05
-1.72151176e-05	-4.04826715e-05
4.00642011e-06	7.05302591e-06
2.09400810e-06	8.92028038e-06
-1.80383340e-05	-2.71858989e-05
-3.94952403e-05	5.12847073e-05
2.57780212e-05	-5.57721578e-05
-7.39387542e-06	-7.97284883e-06
4.99084490e-05	-7.43910550e-06
1.40175971e-05	-1.47306328e-05
-1.82320782e-05	4.99180242e-05
-6.90486650e-06	-1.46842294e-05
3.86109095e-05	-6.62780149e-05
1.88244776e-05	-8.46618204e-05
1.53316178e-05	2.12695413e-05
-3.96810028e-05	5.85534099e-06
4.32475645e-05	-7.56098088e-05
-5.67134775e-05	-7.39593743e-05
2.66661064e-05	5.56590057e-05
4.44360830e-06	6.79746063e-06
1.70272688e-05	2.38785342e-05
-3.80293277e-05	-2.33455521e-05
-2.27031887e-05	1.08051445e-05
-1.82166859e-05	2.49018849e-05
-1.03342618e-05	5.74882506e-05
-2.82512101e-05	1.92104944e-05
-1.45739150e-05	-6.92429967e-06
1.46095354e-05	1.91591553e-05
2.16231238e-05	-5.31336373e-05
3.25907058e-05	7.91162620e-07
-5.20544381e-06	-3.92449620e-05
-3.43201937e-05	-1.04382716e-05
-4.75338020e-05	3.32528980e-05
-2.04481003e-05	-2.65617491e-05
-2.83968202e-05	-1.13572405e-05
7.62094132e-05	-2.63988004e-05
2.66716052e-05	1.00274247e-05
-6.87990450e-06	3.94357994e-05
-2.95376176e-05	1.89657985e-05
5.98418592e-06	2.35424886e-06
-2.24263313e-05	-1.74885718e-05
-4.94963570e-06	-1.31461384e-05
-4.54357723e-05	9.46927685e-06
-7.82962816e-05	-2.89133241e-05
-3.18568091e-05	-4.73505934e-05
2.67974065e-06	-5.13462692e-05
-6.98075291e-06	-5.62177302e-05
6.21588988e-05	4.77212852e-05
-4.79815862e-05	3.10551004e-05
-2.33550581e-05	-2.61177993e-05
-8.24520976e-06	-1.40536640e-05
4.05454466e-06	-1.10547517e-05
5.43059286e-06	7.31343389e-05
3.30590010e-05	3.03891429e-05
-1.68218139e-05	4.90034581e-05
-2.48486176e-05	-1.63615914e-05
-3.16371879e-05	-3.94784438e-05
5.45726107e-06	-1.23412974e-05
2.04050339e-05	2.89315849e-05
-5.86208553e-05	2.88653609e-06
-7.85474258e-05	-8.65890979e-06
-2.93687917e-05	-3.52680509e-05
1.43027728e-05	-1.23669170e-05
1.78942701e-05	2.08437359e-06
2.39389683e-05	1.62497417e-05
-2.34303843e-05	3.98966731e-05
-6.08924893e-05	-6.30753057e-05
-1.64302874e-05	1.08301665e-05
-1.22793172e-05	-1.38747337e-05
-1.26259047e-05	1.52352068e-05
-1.86309626e-06	-4.31237277e-05
-4.68128164e-05	-1.07386259e-05
-2.46732852e-05	2.16372173e-05
-2.56501498e-05	2.89356885e-05
5.25204705e-05	-9.23929747e-06
4.14839305e-05	1.44713777e-05
2.27049168e-05	2.20180336e-05
2.82853416e-05	-1.65101919e-05
-6.67231652e-05	-4.56773341e-05
-3.52124116e-05	-4.33246205e-05
-7.93917934e-06	-3.61122079e-06
6.30674767e-05	4.43479075e-05
-4.98192530e-05	3.35040204e-05
-3.87955224e-05	-8.91426680e-07
-2.87655748e-05	-4.93356674e-06
1.47236588e-05	1.51713748e-05
2.53087856e-05	1.95939738e-05
-7.20174285e-05	2.40595873e-05
-6.08328846e-05	7.72618114e-06
4.10492066e-06	-2.60722045e-05
2.70428754e-05	-2.87046169e-05
1.89701786e-05	-8.12281905e-06
-6.31899020e-05	3.44272339e-05
-4.94008564e-05	-2.51200381e-05
-6.11929772e-06	-3.29753457e-05
-3.50196642e-05	-8.51087025e-05
-4.60580122e-06	-3.11944641e-05
-3.52364668e-06	-1.19167844e-05
2.69026714e-06	4.63340475e-05
-2.18444002e-05	5.25840296e-05
-6.85810373e-05	1.78500359e-05
