Dangerplot_version	1.0
Number_of_points	1024
Sampling_frequency	2.00000000e+03
Transmitter_frequency	1.27786142e+08
Phi0	0
Phi1	0
PPM_reference	4.70000000e+00
Real_FID	Imag_FID	
-1.34807348e-01	-8.09669644e-02
-2.57217705e-01	-1.32828966e-01
-2.47332960e-01	-1.13722757e-01
-2.48759300e-01	-1.04923524e-01
-2.46071845e-01	-1.07300930e-01
-2.41863683e-01	-1.12696223e-01
-2.37099260e-01	-1.17604159e-01
-2.33542189e-01	-1.19569287e-01
-2.27684528e-01	-1.26056194e-01
-2.23649293e-01	-1.29041940e-01
-2.19514638e-01	-1.32105857e-01
-2.14019060e-01	-1.37386292e-01
-2.08131969e-01	-1.42805248e-01
-2.04404294e-01	-1.44463181e-01
-1.97939068e-01	-1.49282679e-01
-1.93995148e-01	-1.50642738e-01
-1.90646768e-01	-1.51730120e-01
-1.85364664e-01	-1.55135840e-01
-1.80092052e-01	-1.58259645e-01
-1.77135855e-01	-1.58362687e-01
-1.73004031e-01	-1.59621730e-01
-1.70089990e-01	-1.59522921e-01
-1.68944895e-01	-1.57732680e-01
-1.65951550e-01	-1.57972559e-01
-1.62971824e-01	-1.58066452e-01
-1.61963239e-01	-1.56174392e-01
-1.60354838e-01	-1.54716566e-01
-1.58161297e-01	-1.53984666e-01
-1.57216981e-01	-1.52302206e-01
-1.55798957e-01	-1.51220366e-01
-1.53588131e-01	-1.50684595e-01
-1.51185766e-01	-1.50065765e-01
-1.50329486e-01	-1.48053423e-01
-1.49223343e-01	-1.46306172e-01
-1.48461372e-01	-1.44448116e-01
-1.47452354e-01	-1.42775506e-01
-1.46947965e-01	-1.40655473e-01
-1.45626515e-01	-1.39302924e-01
-1.44765183e-01	-1.37361318e-01
-1.44407272e-01	-1.35025948e-01
-1.44171894e-01	-1.32734135e-01
-1.42840326e-01	-1.31704122e-01
-1.42041966e-01	-1.29870251e-01
-1.41509816e-01	-1.27589896e-01
-1.41177148e-01	-1.25150114e-01
-1.41022027e-01	-1.22738801e-01
-1.41261250e-01	-1.19942725e-01
-1.40337080e-01	-1.18305840e-01
-1.39612660e-01	-1.16298899e-01
-1.38914734e-01	-1.14263155e-01
-1.38208300e-01	-1.12290621e-01
-1.37848526e-01	-1.09999828e-01
-1.37594804e-01	-1.07788980e-01
-1.37041748e-01	-1.06047422e-01
-1.36190832e-01	-1.04353294e-01
-1.35240421e-01	-1.02797084e-01
-1.34496331e-01	-1.00891322e-01
-1.33913577e-01	-9.90002230e-02
-1.33135393e-01	-9.75034386e-02
-1.32345498e-01	-9.58993807e-02
-1.31515726e-01	-9.41860154e-02
-1.30725428e-01	-9.23490897e-02
-1.30161732e-01	-9.02482718e-02
-1.29809514e-01	-8.80908519e-02
-1.28964648e-01	-8.68593231e-02
-1.27997369e-01	-8.55754167e-02
-1.26991376e-01	-8.42804611e-02
-1.25808522e-01	-8.30841139e-02
-1.24627538e-01	-8.19959193e-02
-1.23797491e-01	-8.04759264e-02
-1.22833788e-01	-7.91791081e-02
-1.21662013e-01	-7.82043338e-02
-1.20459937e-01	-7.73510337e-02
-1.19295038e-01	-7.64429420e-02
-1.18198894e-01	-7.53969550e-02
-1.17234215e-01	-7.44610056e-02
-1.16380006e-01	-7.33974800e-02
-1.15187466e-01	-7.25689232e-02
-1.13938168e-01	-7.16701597e-02
-1.12856731e-01	-7.05873817e-02
-1.11637868e-01	-6.96981922e-02
-1.10438570e-01	-6.92488253e-02
-1.09282784e-01	-6.86712414e-02
-1.08001642e-01	-6.82924092e-02
-1.06683895e-01	-6.78960383e-02
-1.05363823e-01	-6.74715862e-02
-1.04162008e-01	-6.68652728e-02
-1.03008673e-01	-6.63431510e-02
-1.01777360e-01	-6.59388974e-02
-1.00466266e-01	-6.55024275e-02
-9.91569310e-02	-6.49896115e-02
-9.78143439e-02	-6.44879192e-02
-9.67221931e-02	-6.40207529e-02
-9.55518857e-02	-6.35399222e-02
-9.43490043e-02	-6.33544996e-02
-9.29224342e-02	-6.34177029e-02
-9.14137736e-02	-6.34259284e-02
-8.99075568e-02	-6.33635595e-02
-8.85947570e-02	-6.31808788e-02
-8.73860419e-02	-6.30325675e-02
-8.61954913e-02	-6.27806038e-02
-8.48469585e-02	-6.26196489e-02
-8.36542547e-02	-6.22643717e-02
-8.25241357e-02	-6.18513525e-02
-8.13402534e-02	-6.16949834e-02
-8.02265927e-02	-6.15824610e-02
-7.90066049e-02	-6.13753274e-02
-7.77642056e-02	-6.12125769e-02
-7.64644146e-02	-6.11273684e-02
-7.51449913e-02	-6.08772039e-02
-7.39356428e-02	-6.06991500e-02
-7.26167485e-02	-6.07354157e-02
-7.12189153e-02	-6.08358979e-02
-6.99068308e-02	-6.07840121e-02
-6.85633868e-02	-6.08543754e-02
-6.72936141e-02	-6.06270246e-02
-6.62253499e-02	-6.04404472e-02
-6.52063787e-02	-6.01873025e-02
-6.40418008e-02	-6.00562952e-02
-6.29119501e-02	-5.97346015e-02
-6.17357641e-02	-5.94668537e-02
-6.07506633e-02	-5.91975674e-02
-5.96301146e-02	-5.91409355e-02
-5.85544296e-02	-5.89706153e-02
-5.73108494e-02	-5.89186437e-02
-5.60408309e-02	-5.88167459e-02
-5.47569767e-02	-5.86536713e-02
-5.37119061e-02	-5.84110469e-02
-5.25891297e-02	-5.83463646e-02
-5.14955521e-02	-5.81444129e-02
-5.03996611e-02	-5.79974353e-02
-4.93389815e-02	-5.77862337e-02
-4.82793860e-02	-5.74540943e-02
-4.73879874e-02	-5.70819639e-02
-4.64544557e-02	-5.68554476e-02
-4.55512963e-02	-5.65710738e-02
-4.46295068e-02	-5.62510826e-02
-4.35661972e-02	-5.59737980e-02
-4.26250808e-02	-5.57063706e-02
-4.18541096e-02	-5.53428978e-02
-4.08122353e-02	-5.51301241e-02
-3.99623998e-02	-5.49469069e-02
-3.88645828e-02	-5.47824204e-02
-3.78703251e-02	-5.45497686e-02
-3.68279181e-02	-5.41205965e-02
-3.59831341e-02	-5.38421199e-02
-3.51518951e-02	-5.35086468e-02
-3.45820561e-02	-5.30653745e-02
-3.38398144e-02	-5.26579246e-02
-3.31386738e-02	-5.22628799e-02
-3.24038416e-02	-5.18748611e-02
-3.16926241e-02	-5.14790714e-02
-3.09257824e-02	-5.11345305e-02
-3.00860554e-02	-5.08170798e-02
-2.93277893e-02	-5.05599603e-02
-2.84547340e-02	-5.01168445e-02
-2.76865792e-02	-4.97505963e-02
-2.71007046e-02	-4.93523888e-02
-2.63203476e-02	-4.90219332e-02
-2.55899914e-02	-4.86813448e-02
-2.49793250e-02	-4.83044162e-02
-2.43165288e-02	-4.79240865e-02
-2.36722417e-02	-4.75187562e-02
-2.31423117e-02	-4.71128784e-02
-2.25527659e-02	-4.67125252e-02
-2.19945684e-02	-4.62809019e-02
-2.14148145e-02	-4.58540022e-02
-2.08925791e-02	-4.54047173e-02
-2.03542598e-02	-4.50130925e-02
-1.99232269e-02	-4.46145870e-02
-1.93805080e-02	-4.42955941e-02
-1.86719559e-02	-4.39811647e-02
-1.80778652e-02	-4.36749570e-02
-1.74663477e-02	-4.32140790e-02
-1.69530548e-02	-4.27546427e-02
-1.64955072e-02	-4.23333496e-02
-1.61479283e-02	-4.18978259e-02
-1.56990495e-02	-4.14765030e-02
-1.52538195e-02	-4.10531424e-02
-1.49564380e-02	-4.06207144e-02
-1.46207009e-02	-4.02460620e-02
-1.42575558e-02	-3.98714431e-02
-1.38057685e-02	-3.95369902e-02
-1.32845463e-02	-3.91920134e-02
-1.28322504e-02	-3.87254320e-02
-1.24337338e-02	-3.83027159e-02
-1.21120624e-02	-3.78931127e-02
-1.16707794e-02	-3.74183729e-02
-1.13427183e-02	-3.70526947e-02
-1.09969731e-02	-3.66558731e-02
-1.06581142e-02	-3.63021865e-02
-1.03234705e-02	-3.59062515e-02
-9.98595171e-03	-3.54933031e-02
-9.69421677e-03	-3.50884646e-02
-9.39425640e-03	-3.47486809e-02
-9.12135188e-03	-3.43470015e-02
-8.83374643e-03	-3.39176655e-02
-8.53182469e-03	-3.34912352e-02
-8.30028206e-03	-3.31314579e-02
-8.03877227e-03	-3.27447765e-02
-7.80822150e-03	-3.23879942e-02
-7.41700502e-03	-3.20280083e-02
-7.19139352e-03	-3.16436514e-02
-6.94574649e-03	-3.13053988e-02
-6.68395963e-03	-3.08655202e-02
-6.44506421e-03	-3.05125043e-02
-6.18672930e-03	-3.02421264e-02
-5.94489370e-03	-2.97988672e-02
-5.76875592e-03	-2.95391008e-02
-5.58722252e-03	-2.91367993e-02
-5.40706748e-03	-2.88268663e-02
-5.22178318e-03	-2.84878630e-02
-5.02753397e-03	-2.82058064e-02
-4.77856025e-03	-2.78959461e-02
-4.59761033e-03	-2.74670497e-02
-4.41221427e-03	-2.71040946e-02
-4.22905385e-03	-2.67691351e-02
-4.08747653e-03	-2.64810733e-02
-3.85022466e-03	-2.61742175e-02
-3.64314392e-03	-2.58393697e-02
-3.49205988e-03	-2.55120918e-02
-3.43887135e-03	-2.51659155e-02
-3.32650682e-03	-2.48869099e-02
-3.15321609e-03	-2.45352760e-02
-2.99102138e-03	-2.43807789e-02
-2.87435041e-03	-2.41277348e-02
-2.68790475e-03	-2.37967130e-02
-2.56636576e-03	-2.34741848e-02
-2.42986414e-03	-2.31546387e-02
-2.33280822e-03	-2.29028445e-02
-2.23239441e-03	-2.26311851e-02
-2.09144806e-03	-2.23489534e-02
-1.94614579e-03	-2.20274050e-02
-1.85248861e-03	-2.17305403e-02
-1.82234577e-03	-2.14540083e-02
-1.66905986e-03	-2.11930610e-02
-1.60349836e-03	-2.09804457e-02
-1.49481592e-03	-2.07113698e-02
-1.37099065e-03	-2.04569288e-02
-1.31323910e-03	-2.01669801e-02
-1.26718427e-03	-1.99630987e-02
-1.18951313e-03	-1.96447689e-02
-1.02217635e-03	-1.94297172e-02
-9.41317878e-04	-1.92337818e-02
-8.06174241e-04	-1.89196747e-02
-8.21994909e-04	-1.86196119e-02
-7.84535019e-04	-1.84733924e-02
-7.33686495e-04	-1.82247087e-02
-6.21078187e-04	-1.79540608e-02
-4.92937514e-04	-1.76588297e-02
-4.76901158e-04	-1.74723845e-02
-4.16672876e-04	-1.72588099e-02
-3.70753463e-04	-1.70516223e-02
-2.61421694e-04	-1.67666487e-02
-2.06115365e-04	-1.65285040e-02
-1.52341934e-04	-1.63437948e-02
-1.10103341e-04	-1.61283072e-02
5.40565816e-06	-1.59583092e-02
-1.64320081e-05	-1.57719217e-02
4.31622611e-05	-1.55446380e-02
1.00915509e-04	-1.53025500e-02
2.20139176e-04	-1.50584467e-02
2.20900358e-04	-1.48700466e-02
2.55707593e-04	-1.46135073e-02
2.37625369e-04	-1.44338729e-02
3.61327053e-04	-1.42607260e-02
3.85181687e-04	-1.40591664e-02
3.97450756e-04	-1.38486028e-02
4.70265019e-04	-1.37005700e-02
5.07680117e-04	-1.34642078e-02
5.69550961e-04	-1.32852970e-02
5.87119954e-04	-1.31256459e-02
6.19597617e-04	-1.29940808e-02
7.32484390e-04	-1.27738155e-02
7.64080149e-04	-1.25443330e-02
7.72126950e-04	-1.23906163e-02
7.64316763e-04	-1.21923555e-02
8.87054717e-04	-1.20794605e-02
9.08699643e-04	-1.18990662e-02
9.26269917e-04	-1.17948242e-02
9.57156648e-04	-1.15345577e-02
1.01577386e-03	-1.14829568e-02
1.06070749e-03	-1.12984395e-02
1.07239338e-03	-1.11389104e-02
1.04811776e-03	-1.09455669e-02
1.07761996e-03	-1.08487336e-02
1.04432693e-03	-1.06634740e-02
1.12936657e-03	-1.05609382e-02
1.11082906e-03	-1.04004210e-02
1.11185643e-03	-1.02257496e-02
1.15176069e-03	-1.00990077e-02
1.20612991e-03	-9.93371196e-03
1.25763938e-03	-9.79141798e-03
1.24646875e-03	-9.70291439e-03
1.17858127e-03	-9.54088196e-03
1.17315969e-03	-9.44740232e-03
1.29024452e-03	-9.28877946e-03
1.39761937e-03	-9.16801579e-03
1.33080909e-03	-9.07932315e-03
1.35643897e-03	-8.89318623e-03
1.39223132e-03	-8.78117513e-03
1.42437126e-03	-8.67136940e-03
1.37599139e-03	-8.53233412e-03
1.33983814e-03	-8.39741714e-03
1.43894274e-03	-8.28910712e-03
1.43539929e-03	-8.20885040e-03
1.36855966e-03	-8.02160986e-03
1.42374309e-03	-7.92853534e-03
1.44496153e-03	-7.78136356e-03
1.41975668e-03	-7.75872637e-03
1.39009138e-03	-7.61247193e-03
1.43418985e-03	-7.52069103e-03
1.48005306e-03	-7.41595449e-03
1.49247900e-03	-7.26451492e-03
1.47770741e-03	-7.16630602e-03
1.50004250e-03	-7.05407467e-03
1.48209976e-03	-7.01878453e-03
1.54193444e-03	-6.87925797e-03
1.52003847e-03	-6.71760133e-03
1.53135567e-03	-6.64406084e-03
1.53991999e-03	-6.52406691e-03
1.49079971e-03	-6.45556860e-03
1.53707690e-03	-6.39948621e-03
1.49139517e-03	-6.33331900e-03
1.52834610e-03	-6.21956773e-03
1.49858545e-03	-6.10932056e-03
1.51696242e-03	-6.06880290e-03
1.52551057e-03	-5.92684839e-03
1.53121096e-03	-5.85003104e-03
1.47021597e-03	-5.77783212e-03
1.55381684e-03	-5.65946288e-03
1.51097716e-03	-5.58270048e-03
1.50564325e-03	-5.49396779e-03
1.49513956e-03	-5.37750032e-03
1.56243972e-03	-5.30799292e-03
1.51797652e-03	-5.27233304e-03
1.52341370e-03	-5.22905309e-03
1.56937144e-03	-5.10033034e-03
1.47004053e-03	-5.02487272e-03
1.51886477e-03	-4.95350780e-03
1.48290524e-03	-4.87750303e-03
1.52476877e-03	-4.88884281e-03
1.44499703e-03	-4.80142888e-03
1.45598338e-03	-4.66965931e-03
1.46864343e-03	-4.56697959e-03
1.47002761e-03	-4.55729803e-03
1.44791824e-03	-4.49625589e-03
1.45705789e-03	-4.40020300e-03
1.45066273e-03	-4.32958687e-03
1.42765010e-03	-4.28823428e-03
1.37783983e-03	-4.18287516e-03
1.34605740e-03	-4.11982229e-03
1.34356332e-03	-4.06291150e-03
1.32277561e-03	-4.00137668e-03
1.32500927e-03	-4.00219718e-03
1.39750773e-03	-3.90186440e-03
1.36133970e-03	-3.83962132e-03
1.32796040e-03	-3.77031206e-03
1.30316464e-03	-3.67696024e-03
1.33819529e-03	-3.61593207e-03
1.31460989e-03	-3.60707566e-03
1.34714833e-03	-3.51184211e-03
1.31991040e-03	-3.51019204e-03
1.30134320e-03	-3.37929348e-03
1.32424943e-03	-3.31834937e-03
1.27830659e-03	-3.31270229e-03
1.32459612e-03	-3.25880735e-03
1.33317418e-03	-3.15570692e-03
1.32864376e-03	-3.12182633e-03
1.29278202e-03	-3.10240267e-03
1.28410407e-03	-3.05020856e-03
1.28095038e-03	-3.06142261e-03
1.28616975e-03	-3.00373347e-03
1.28817419e-03	-2.93983147e-03
1.24617200e-03	-2.87949014e-03
1.20276038e-03	-2.88408739e-03
1.22956920e-03	-2.77482648e-03
1.19954231e-03	-2.80611566e-03
1.17822469e-03	-2.72366544e-03
1.22430176e-03	-2.67982553e-03
1.17441383e-03	-2.66625779e-03
1.13077974e-03	-2.60473415e-03
1.08144293e-03	-2.59965844e-03
1.04493415e-03	-2.57794326e-03
1.01786316e-03	-2.54813232e-03
1.07867003e-03	-2.45309458e-03
9.69315646e-04	-2.42161797e-03
9.94163216e-04	-2.38026911e-03
9.71662870e-04	-2.28941883e-03
9.87717183e-04	-2.30172928e-03
1.02243200e-03	-2.24827649e-03
9.84116108e-04	-2.17355625e-03
9.77988937e-04	-2.16128374e-03
9.29659698e-04	-2.05986667e-03
9.79450298e-04	-2.06814986e-03
9.90699162e-04	-2.02659145e-03
9.82135884e-04	-1.90432440e-03
9.40233294e-04	-1.94673694e-03
9.16488585e-04	-1.90707413e-03
8.72981094e-04	-1.90637261e-03
9.65953921e-04	-1.83103466e-03
9.61077982e-04	-1.82056404e-03
9.14743287e-04	-1.82602811e-03
9.37346718e-04	-1.78570440e-03
9.17589176e-04	-1.76988565e-03
8.34796869e-04	-1.73081760e-03
8.62833112e-04	-1.74725801e-03
8.82385066e-04	-1.70812977e-03
8.64613627e-04	-1.68120116e-03
8.59197753e-04	-1.66723144e-03
8.41257977e-04	-1.60579453e-03
8.49061180e-04	-1.61237293e-03
8.36338033e-04	-1.55966647e-03
7.93825253e-04	-1.61037268e-03
8.13225575e-04	-1.54340104e-03
7.48130202e-04	-1.43958721e-03
7.64957396e-04	-1.49970979e-03
7.46756094e-04	-1.43898267e-03
7.56271649e-04	-1.36509899e-03
7.26386905e-04	-1.41780137e-03
7.45225640e-04	-1.37816486e-03
7.44067715e-04	-1.35432545e-03
6.89885928e-04	-1.33815862e-03
7.55790737e-04	-1.33965467e-03
7.43521028e-04	-1.28619163e-03
6.35561824e-04	-1.27660134e-03
6.32648182e-04	-1.27571251e-03
6.39566802e-04	-1.25253981e-03
6.30201772e-04	-1.25550141e-03
6.46633387e-04	-1.23206130e-03
5.85206319e-04	-1.25593483e-03
5.99022722e-04	-1.19538046e-03
5.96927421e-04	-1.22855324e-03
5.83260553e-04	-1.13048241e-03
4.69390041e-04	-1.09741883e-03
4.98765032e-04	-1.13381236e-03
5.64477872e-04	-1.08332327e-03
4.70411731e-04	-1.08525541e-03
4.56850103e-04	-1.10063679e-03
4.40353790e-04	-1.03888940e-03
4.72271349e-04	-1.00007840e-03
4.42624791e-04	-1.03663281e-03
5.13546867e-04	-1.03672058e-03
4.85288328e-04	-9.43792460e-04
4.60952026e-04	-9.39676771e-04
4.50099440e-04	-9.09669441e-04
4.01023426e-04	-8.91041011e-04
4.51960426e-04	-8.94891040e-04
4.18341020e-04	-8.58705316e-04
3.90116707e-04	-7.87667290e-04
3.79914709e-04	-9.12500196e-04
3.82269965e-04	-8.69551441e-04
4.06818435e-04	-8.02906463e-04
4.02750389e-04	-7.89320155e-04
3.28945694e-04	-8.27600015e-04
3.39692750e-04	-8.23679380e-04
3.63436266e-04	-7.46238395e-04
2.96994462e-04	-7.38819013e-04
3.21086438e-04	-7.39575073e-04
3.01171240e-04	-7.33210298e-04
3.03566048e-04	-6.64509833e-04
3.50152375e-04	-6.47163310e-04
3.10674193e-04	-7.01608893e-04
2.98202940e-04	-6.91099791e-04
2.85507180e-04	-6.65461528e-04
2.90225493e-04	-6.45987864e-04
3.32472468e-04	-6.68489491e-04
2.24693664e-04	-6.05600246e-04
2.45686446e-04	-5.82467415e-04
2.95389211e-04	-6.31268485e-04
2.26229153e-04	-6.39919715e-04
2.77510815e-04	-6.02855696e-04
2.76565610e-04	-6.26271998e-04
1.47631246e-04	-5.61574940e-04
1.59196876e-04	-5.99478546e-04
2.18814137e-04	-5.70752833e-04
1.91696789e-04	-5.56024141e-04
1.99394868e-04	-5.15940541e-04
2.15208915e-04	-5.58964384e-04
2.07450998e-04	-5.68969292e-04
1.71522188e-04	-5.19194291e-04
2.01122602e-04	-5.62120171e-04
1.44271558e-04	-5.29285870e-04
1.20509059e-04	-5.54653758e-04
1.12763184e-04	-5.32310980e-04
1.15833602e-04	-5.03654825e-04
9.72207927e-05	-5.16157190e-04
9.85102743e-05	-5.03000745e-04
1.20840850e-04	-4.93681582e-04
5.68082360e-05	-4.49373532e-04
4.67536156e-05	-4.35979542e-04
1.27795414e-04	-5.20064204e-04
9.28670925e-05	-4.29430918e-04
2.99073381e-05	-4.56819282e-04
1.19945544e-04	-4.45210608e-04
6.98608201e-05	-4.13991453e-04
1.02694175e-04	-4.50931315e-04
5.90244308e-05	-4.58706054e-04
4.35011680e-05	-3.90339381e-04
5.45420189e-05	-4.22694779e-04
2.81256289e-05	-4.11295274e-04
6.25896428e-06	-4.44014702e-04
1.42033941e-05	-3.97557858e-04
2.26191423e-05	-3.88392014e-04
2.50849116e-05	-3.56177421e-04
-7.38900781e-07	-3.69970658e-04
6.26465262e-05	-4.00584511e-04
-2.50221128e-05	-4.22312907e-04
1.79883682e-06	-3.46625748e-04
5.55670194e-05	-3.61013459e-04
2.25005206e-05	-3.66005785e-04
5.47673335e-05	-3.40626051e-04
5.35116851e-05	-3.42705811e-04
4.22017001e-05	-3.57963290e-04
2.09699883e-05	-3.95732466e-04
6.53574989e-06	-3.72769311e-04
-6.13358279e-05	-3.18058941e-04
-4.25449362e-05	-3.27502785e-04
-3.64900443e-05	-3.25888192e-04
-2.86932991e-05	-3.46755871e-04
-3.08067465e-05	-3.05137917e-04
-5.34257233e-05	-2.81096785e-04
-9.08636139e-05	-2.92845129e-04
-8.36300605e-05	-3.15365527e-04
-5.86816532e-05	-3.07954993e-04
-7.02088655e-05	-3.32297554e-04
-1.36351882e-04	-2.85360613e-04
-1.10283268e-04	-2.65175215e-04
-1.09316126e-04	-2.66156683e-04
-8.33079102e-05	-2.85020360e-04
-8.42742302e-05	-2.42140755e-04
-9.31559698e-05	-2.56804371e-04
-1.01166290e-04	-2.38738459e-04
-7.83786963e-05	-2.38797889e-04
-1.07783162e-04	-1.34446367e-04
-6.41018923e-05	-2.15890730e-04
-7.70042680e-05	-1.43578713e-04
-1.01189733e-04	-1.95705215e-04
-1.25609542e-04	-1.70559273e-04
-8.45615941e-05	-1.89113402e-04
-1.97692225e-05	-1.67317557e-04
-7.04234117e-05	-2.12965053e-04
-5.36987864e-05	-1.38457486e-04
-9.01746171e-05	-1.62740907e-04
-8.94895493e-05	-1.90119827e-04
-4.12150912e-05	-1.69242310e-04
-5.87024551e-05	-1.71474952e-04
6.06346202e-06	-1.58329174e-04
-7.63329153e-05	-2.06279277e-04
-4.63921569e-05	-2.09661259e-04
-1.11918293e-04	-2.03592586e-04
-7.36214279e-05	-1.58207738e-04
-4.97968940e-05	-2.04536162e-04
-5.33667335e-05	-1.92826425e-04
-7.49874162e-05	-1.60278723e-04
-9.68867462e-05	-1.60795884e-04
-1.12729569e-04	-2.01335322e-04
-1.21879079e-04	-1.97657326e-04
-1.11784597e-04	-1.93716187e-04
-1.39399781e-04	-1.59854011e-04
-1.06660860e-04	-1.52023786e-04
-1.49952248e-04	-1.78369984e-04
-1.23991544e-04	-1.43209720e-04
-1.11242043e-04	-1.60423835e-04
-1.29067615e-04	-1.45486832e-04
-1.20479235e-04	-1.80837189e-04
-9.52211994e-05	-2.00861483e-04
-8.45265313e-05	-1.36846866e-04
-1.19686454e-04	-1.55936636e-04
-1.23518723e-04	-1.58532537e-04
-1.57654693e-04	-1.23292513e-04
-6.11769065e-05	-1.76634348e-04
-1.24796788e-04	-1.81466079e-04
-1.27090083e-04	-1.67864651e-04
-9.85504957e-05	-1.38523013e-04
-1.01212368e-04	-1.39706972e-04
-8.60468281e-05	-1.77114009e-04
-1.56983646e-04	-1.90361534e-04
-1.42080229e-04	-2.01032759e-04
-1.08960274e-04	-1.32752204e-04
-1.08479413e-04	-1.65226695e-04
-1.69948471e-04	-1.23792139e-04
-1.35528549e-04	-1.57014452e-04
-1.46477847e-04	-1.85506156e-04
-1.38698422e-04	-1.56641137e-04
-1.81700234e-04	-1.69800915e-04
-1.46546838e-04	-1.62793396e-04
-9.06972055e-05	-1.09673871e-04
-1.12257170e-04	-1.69742532e-04
-2.00145631e-04	-1.16840667e-04
-1.22136335e-04	-1.23148639e-04
-1.39174139e-04	-1.49821019e-04
-1.49197644e-04	-1.26969127e-04
-1.89843558e-04	-1.25953287e-04
-1.22439509e-04	-1.46940147e-04
-1.19561933e-04	-7.77536188e-05
-1.64523735e-04	-1.33168825e-04
-1.43652665e-04	-1.01555859e-04
-1.31878289e-04	-1.77071226e-04
-1.73217879e-04	-1.17619064e-04
-1.87565005e-04	-1.33851951e-04
-1.40124481e-04	-1.43787998e-04
-1.79215407e-04	-1.31184643e-04
-1.75300665e-04	-1.20355995e-04
-2.12266794e-04	-1.51868298e-04
-1.67447564e-04	-1.52154695e-04
-1.39686890e-04	-1.59266929e-04
-1.74589935e-04	-1.55147674e-04
-1.88876555e-04	-1.63873774e-04
-1.58733630e-04	-1.33227004e-04
-2.56192026e-04	-1.36219285e-04
-1.96524052e-04	-1.09785018e-04
-1.90481544e-04	-9.76948504e-05
-2.11851788e-04	-8.35526371e-05
-1.91932791e-04	-6.27860209e-05
-2.06885350e-04	-2.02414722e-05
-2.09416277e-04	-8.46590628e-05
-1.82383330e-04	-9.26312641e-05
-2.65296258e-04	-4.54577894e-05
-1.30339497e-04	-4.88649275e-05
-2.27283250e-04	-7.40311807e-05
-1.97008500e-04	-5.67249044e-05
-1.78643997e-04	-6.23728411e-05
-1.58426075e-04	-7.50667750e-05
-1.21252364e-04	-6.36476907e-05
-2.09779377e-04	-8.71498050e-05
-1.74080400e-04	-7.69817416e-05
-1.71516440e-04	-4.53171160e-05
-1.24598213e-04	-3.00854626e-05
-1.60053343e-04	-5.83020592e-05
-1.21552694e-04	-1.50353808e-04
-1.24866070e-04	-7.93986110e-05
-1.25141902e-04	-2.83453446e-05
-1.17891526e-04	-8.91053060e-05
-1.52837601e-04	-1.09077315e-04
-1.28048370e-04	-9.04000262e-05
-1.73082633e-04	-1.34328133e-04
-1.78381568e-04	-1.03877028e-04
-1.62476616e-04	-1.10193250e-04
-1.92706822e-04	-6.06872127e-05
-1.64082827e-04	-1.15493604e-04
-1.85033641e-04	-3.72782706e-05
-2.45538482e-04	-7.11883622e-05
-1.98398469e-04	-8.67041817e-05
-1.33687485e-04	-8.59918364e-05
-1.23481004e-04	-1.17722084e-04
-1.69343853e-04	-1.01684367e-04
-1.60619762e-04	-1.06434803e-04
-1.37716226e-04	-8.28946722e-05
-1.60434807e-04	-6.51940136e-05
-1.89958417e-04	-8.98545695e-05
-1.47810235e-04	-1.77283764e-05
-1.62950935e-04	-6.14639284e-05
-7.78398244e-05	-9.71936242e-05
-9.77645104e-05	-8.93937759e-05
-1.18542899e-04	-9.98696996e-05
-1.22300422e-04	-1.15790877e-04
-1.64466735e-04	-6.27897534e-05
-1.81286479e-04	-9.34368800e-05
-1.85942336e-04	-1.07663815e-04
-1.23540944e-04	-1.40481105e-04
-1.76094400e-04	-1.29029999e-04
-1.38826639e-04	-1.09047774e-04
-1.62474607e-04	-9.50721878e-05
-1.36810952e-04	-1.03724356e-04
-1.71893218e-04	-1.11279893e-04
-2.02724914e-04	-1.25021281e-04
-1.82762364e-04	-1.02232072e-04
-1.91771425e-04	-1.72560525e-04
-2.10989005e-04	-1.44718115e-05
-1.86399542e-04	-1.28254498e-04
-2.05710370e-04	-1.27857813e-04
-1.78669376e-04	-7.30800384e-05
-1.98356211e-04	-1.33306952e-04
-1.86338380e-04	-1.34785674e-04
-1.98098234e-04	-1.08119450e-04
-1.92721083e-04	-1.02064943e-04
-2.26755248e-04	-1.38452640e-04
-1.77835813e-04	-1.06889682e-04
-2.14515821e-04	-6.10940988e-05
-1.57274015e-04	-1.13313636e-05
-1.99809685e-04	-6.11954310e-05
-1.66969985e-04	-7.44124482e-05
-1.57160190e-04	-7.17952644e-05
-1.90979918e-04	-2.22744256e-05
-2.17568479e-04	1.23327791e-05
-1.87859943e-04	-6.19747007e-05
-1.74316840e-04	-8.52794619e-05
-1.43452082e-04	-8.61895387e-05
-1.83447351e-04	-5.48126554e-05
-1.43932484e-04	-8.33188751e-05
-1.18531956e-04	-1.29988679e-04
-1.43529600e-04	-5.60489789e-05
-1.63768214e-04	-6.29458227e-05
-1.72406930e-04	-5.66576855e-05
-1.72401589e-04	-1.00675046e-04
-1.67791892e-04	-1.27048494e-04
-1.78556016e-04	-1.04393475e-04
-1.52417371e-04	-9.06016794e-05
-1.39204727e-04	-1.29549488e-04
-2.04497628e-04	-1.45095226e-04
-1.25495630e-04	-6.64280960e-05
-2.13725056e-04	-8.38541237e-05
-1.90137202e-04	-4.68344369e-05
-2.36977256e-04	-1.26424668e-04
-2.26356540e-04	-6.48111600e-05
-1.49440471e-04	-5.21407455e-05
-2.25834345e-04	-5.95365200e-05
-1.64808982e-04	-6.76794443e-05
-1.88101243e-04	-6.62250968e-05
-1.77654321e-04	-7.29658932e-05
-1.31783338e-04	-8.30981880e-05
-1.48366176e-04	-1.02161423e-04
-1.29920532e-04	-2.75912917e-05
-1.53591172e-04	-7.16044015e-05
-1.55201982e-04	-7.51507760e-05
-1.38156960e-04	-3.04576351e-05
-1.10369001e-04	-6.08180635e-05
-8.78323772e-05	-3.67541179e-05
-1.59559480e-04	-5.77245082e-05
-8.47174524e-05	-6.42608211e-05
-1.55463407e-04	-9.59287572e-05
-1.71378124e-04	-1.01444763e-04
-1.52134904e-04	-5.89059891e-05
-1.51398955e-04	-1.13639464e-04
-1.51253160e-04	-1.15398470e-04
-1.08758388e-04	-5.25113901e-05
-1.41442521e-04	-1.20183206e-04
-1.95310015e-04	-1.24909246e-04
-1.35869879e-04	-8.74205361e-05
-1.14546478e-04	-5.12273800e-05
-1.25416380e-04	-6.19744460e-05
-1.23365520e-04	-1.04353581e-04
-1.22784753e-04	-4.82575269e-05
-1.75381021e-04	-1.26415573e-04
-1.43468249e-04	-3.35446166e-05
-1.35994924e-04	-8.22305083e-05
-1.06769498e-04	-8.54298705e-05
-1.64958896e-04	-7.16833092e-05
-1.34873961e-04	-5.33139500e-05
-1.74263565e-04	-1.10246772e-04
-2.21162656e-04	-5.18025008e-05
-1.82517309e-04	-1.03124032e-04
-2.01068906e-04	-6.98804142e-05
-1.25479826e-04	-8.04944575e-05
-1.59011513e-04	-8.15096864e-05
-1.86896301e-04	-5.23414710e-05
-1.84874763e-04	-6.78169090e-05
-1.72521308e-04	-7.62842974e-05
-1.35086040e-04	-3.84530576e-05
-1.42645091e-04	-2.70044766e-05
-1.19418284e-04	-2.92746226e-05
-1.43660640e-04	-6.12412259e-05
-1.63007164e-04	-9.09468654e-05
-1.23350459e-04	-7.50420004e-05
-1.18461008e-04	-4.61833115e-05
-1.52943379e-04	-4.04035454e-05
-1.40122516e-04	-9.69451939e-05
-1.09365938e-04	1.58273997e-06
-1.51082291e-04	-7.01371246e-05
-1.66830854e-04	-5.67387033e-05
-1.40349119e-04	-6.68330758e-05
-1.68400366e-04	-1.03880164e-04
-1.63734978e-04	-5.19488021e-05
-1.40651100e-04	-9.32330513e-05
-1.41116630e-04	-3.15342513e-05
-1.62472890e-04	-2.05992565e-05
-1.32197369e-04	-8.14223604e-05
-1.40547898e-04	-7.99867994e-05
-9.74591312e-05	-1.04816827e-04
-1.41716810e-04	-1.17778618e-04
-1.12654663e-04	-1.15110248e-04
-1.08090084e-04	-5.47862728e-05
-1.57632254e-04	-6.07248403e-05
-1.45462385e-04	-9.49790629e-05
-1.46923470e-04	-8.69556825e-05
-1.34698275e-04	-9.87824969e-05
-1.22595258e-04	-6.39235514e-05
-1.21923636e-04	-1.03534032e-04
-1.46448569e-04	-1.52845518e-04
-4.56758062e-05	-6.29905917e-05
-1.47468294e-04	-4.23734600e-05
-1.30653701e-04	-5.35161962e-05
-1.17432748e-04	-1.11996735e-04
-1.92833308e-04	-7.17840594e-05
-1.54187175e-04	-9.05653069e-05
-1.15834002e-04	1.00697252e-06
-1.15865398e-04	4.39165706e-06
-1.14630500e-04	-1.44601963e-05
-1.51851738e-04	-3.31968331e-05
-1.48454797e-04	-4.38731622e-05
-1.11725611e-04	-1.26716532e-05
-7.15351780e-05	-3.94789895e-05
-1.02753460e-04	-3.52654315e-05
-1.34825823e-04	-2.65172548e-05
-1.38638279e-04	7.73523425e-07
-8.86222551e-05	-1.06764157e-04
-9.32338735e-05	-7.77634777e-05
-3.25428664e-05	-7.87130120e-05
-5.48168646e-05	-6.80006997e-05
-1.21387435e-04	-5.71715209e-05
-9.81950216e-05	-5.12247971e-05
-8.78296996e-05	-3.40710612e-05
-1.55152156e-04	-8.25025854e-05
-6.94203627e-05	-1.32406873e-04
-1.22250218e-04	-1.16658877e-04
-7.64610741e-05	-9.84054059e-05
-7.92170467e-05	-1.66696962e-04
-1.51008731e-04	-1.21631449e-04
-1.49675325e-04	-4.39085561e-05
-1.59787902e-04	-1.09896166e-04
-1.33672089e-04	-5.26974800e-05
-7.91937200e-05	-1.58765470e-04
-1.36608505e-04	-5.00479109e-05
-1.18322801e-04	-1.18690674e-04
-1.28638596e-04	-2.78738535e-05
-1.17373042e-04	-7.85077864e-05
-1.62350625e-04	-5.95925521e-05
-1.33073292e-04	-1.95031589e-05
-1.21889541e-04	-2.96525886e-05
-1.20919896e-04	-8.90053998e-05
-8.02647555e-05	-7.26647922e-05
-1.11386093e-04	-7.59645554e-05
-1.07837790e-04	-7.27466759e-05
-9.13934928e-05	-6.79219374e-05
-5.15536012e-05	-8.11806385e-05
-1.00618134e-04	-9.59770114e-05
-1.16818970e-04	-9.66301159e-05
-9.64676656e-05	-9.25238855e-05
-1.16300289e-04	-8.85454647e-05
-1.43422789e-04	-1.16208670e-04
-1.62163124e-04	-1.04134277e-04
-1.13423666e-04	-1.07991451e-04
-1.05741907e-04	-9.82476704e-05
-1.42750971e-04	-1.19163524e-04
-1.49661733e-04	-5.25576179e-05
-1.60248979e-04	-8.44359020e-05
-1.34644244e-04	-8.79825675e-05
-1.42156350e-04	-6.14007586e-05
-1.67898746e-04	-7.02229954e-05
-1.51417364e-04	-2.76200226e-05
-1.73174834e-04	-9.50800750e-05
-1.33587571e-04	-5.52208658e-05
-9.85481529e-05	-7.94717707e-05
-1.11016707e-04	-6.63216706e-05
-1.74452987e-04	-4.07432744e-05
-5.16786677e-05	-6.93635229e-06
-7.99379195e-05	-7.38285162e-05
-1.21217134e-04	-4.64954865e-05
-7.91505736e-05	-3.15574180e-05
-8.88978684e-05	-7.46131409e-05
-9.16176068e-05	-6.90450615e-05
-1.15241877e-04	-4.88424776e-05
-9.10786694e-05	-6.05811802e-05
-1.53065732e-04	-8.71446537e-05
-3.80674828e-05	-4.29496358e-05
-8.66586124e-05	-1.03915263e-04
-7.74814616e-05	-5.72542194e-05
-1.17243530e-04	-8.58849598e-05
-9.59277677e-05	-1.19075819e-04
-1.09287081e-04	-7.67606762e-05
-4.40910626e-05	-4.44159014e-05
-1.09044777e-04	-1.01238293e-04
-1.56575319e-04	-6.46531189e-05
-1.02135127e-04	-7.90921986e-05
-1.19315788e-04	-6.15737736e-05
-6.75843476e-05	-1.03562910e-04
-1.03874379e-04	-5.44774775e-05
-7.16865034e-05	-8.36046966e-05
-1.08485234e-04	-7.12691835e-05
-1.68393628e-04	-6.38441416e-05
-9.22147447e-05	-2.01774928e-05
-1.33571288e-04	-7.22273253e-05
-6.73455870e-05	-7.79060138e-05
-7.76148881e-05	-4.55761838e-05
-1.16040348e-04	-7.38220479e-05
-7.83103751e-05	-1.25095263e-04
-6.93957772e-05	-6.22219668e-05
-4.54812543e-05	-1.26604427e-04
-9.16207064e-05	-1.34079499e-04
-3.27404668e-05	-7.17857038e-05
-1.43871905e-04	-9.92713613e-05
-8.66839982e-05	-3.53624673e-05
-7.90206323e-05	-8.89249859e-05
-5.71082637e-05	-1.32071960e-04
-9.61142723e-05	-8.26858231e-05
-8.85620757e-05	-1.48826410e-04
-1.41460521e-04	-1.12158006e-04
-9.40670434e-05	-9.72062844e-05
-1.02262042e-04	-8.98684812e-05
-1.01790705e-04	-8.84930050e-05
-7.98396359e-05	-7.91532075e-05
-8.98692961e-05	-1.02365826e-04
-1.07853033e-04	-1.14990580e-04
-1.26496408e-04	-9.17423458e-05
-8.42074078e-05	-6.62673483e-05
-1.51743749e-04	-8.70344666e-05
-1.33135618e-04	2.39990732e-06
-9.79177275e-05	-5.79469597e-05
-5.99745472e-05	-7.21810939e-05
-8.45289833e-05	-8.37444459e-05
-7.59419345e-05	-6.98667354e-05
-2.93302164e-05	-1.59871779e-05
-9.66398729e-05	-6.02839027e-05
-1.32433168e-04	-6.66280030e-05
-9.36401630e-05	-7.59846298e-05
-1.17682735e-04	-1.19226708e-04
-6.15857862e-05	-8.54282116e-05
-5.06733995e-05	-1.04136634e-04
-8.88315844e-05	-8.50488213e-05
-3.89564084e-05	-1.23983424e-04
-7.72819112e-05	-6.38400088e-05
-7.55130022e-05	-1.05726140e-04
-9.75991570e-05	-8.36666441e-05
-9.28673835e-05	-9.31955437e-05
-8.79925428e-05	-1.88006816e-05
-1.10292043e-04	4.32660272e-06
-8.73516401e-05	-6.59738507e-05
-4.66380698e-05	-9.54265124e-05
-6.69294386e-05	-1.19234566e-04
-1.93272263e-05	-6.45893160e-05
-2.36109936e-05	-1.01586804e-04
-4.23481470e-05	-7.14510243e-05
-7.00765813e-05	-7.15407223e-05
-7.26867947e-05	-7.30977772e-05
-7.24175479e-05	-9.42065526e-05
-3.85425883e-05	-8.53848469e-05
-6.59680445e-05	-6.33233285e-05
6.55587974e-06	-9.98080504e-05
-8.70617296e-05	-9.93450230e-05
-5.20535177e-05	-1.01815065e-04
4.14090828e-05	-3.69060072e-05
-6.09079434e-05	-6.72397000e-05
-2.10836224e-05	-8.48628988e-05
-3.64906700e-05	-5.89782940e-05
-4.35830152e-05	-1.24047845e-04
-6.98575604e-05	-5.22601476e-05
-4.79214577e-05	-6.40241706e-05
-1.10608657e-04	-6.59006328e-05
-4.11417677e-05	-9.69179600e-05
-8.49792850e-05	-8.06024109e-05
-6.32546071e-05	-8.59852153e-05
-9.21254323e-05	-7.65492005e-05
-7.66386656e-05	-7.86308301e-05
-1.18551987e-04	-6.66053747e-05
-9.40272148e-05	-6.26724650e-05
-8.91127565e-05	-7.36396032e-05
-1.27518171e-04	-5.28816163e-05
-7.49050596e-05	-6.00008934e-05
-8.09456687e-05	-6.82904065e-05
-9.05714624e-05	-1.41432311e-05
-7.93224099e-05	-1.12795744e-04
-6.11840733e-05	-3.26026275e-05
-7.05182320e-05	-7.70650804e-05
-3.58460056e-05	-8.48754134e-05
-1.85954414e-05	2.14681550e-05
-5.23210474e-05	-1.97277714e-05
-1.03605002e-04	-2.48442411e-05
-7.49318860e-05	-1.51331715e-05
-6.94825721e-05	-4.52432323e-06
-3.78329860e-05	-1.33853227e-05
-4.47316052e-06	-6.28666894e-05
-8.05994350e-05	-6.78065335e-05
-7.89723272e-05	-4.70828600e-05
-8.03094590e-05	-7.15551723e-05
-3.93352675e-05	-4.24553691e-05
-3.62852297e-05	9.86906434e-06
-3.36123485e-05	-8.88767900e-05
-7.98827750e-05	-3.20183317e-05
-1.55277303e-06	-3.18354068e-05
-4.02874903e-05	-2.06469304e-05
-6.90140660e-05	-1.93481956e-05
-4.07346452e-05	-6.11732830e-05
-2.55862433e-05	-1.39418744e-05
-2.63752572e-05	-2.05392134e-05
-1.22223370e-04	-8.62148590e-05
-2.28542085e-05	-6.32572046e-05
-4.61377640e-05	-4.51875967e-05
-5.58752763e-05	-4.03023005e-05
-2.87871462e-05	-2.79123597e-05
-7.66929588e-05	-5.82493740e-05
-1.74687284e-05	-2.80475942e-05
-3.47038585e-05	-5.20940739e-05
-8.00013513e-05	-7.17942166e-05
-8.47255506e-05	-1.03244980e-04
-7.83899304e-05	-3.74145930e-05
-3.49201946e-05	-6.08522641e-05
-1.22259837e-04	1.62473771e-05
-1.15129391e-04	-6.32116062e-05
-8.54086902e-05	-3.82368307e-05
-9.78207245e-05	-1.07804604e-04
-7.88895122e-05	-6.19390630e-05
-5.03134070e-05	-5.62285713e-05
-4.41033771e-05	-5.49277502e-05
-4.82661599e-05	-5.45854018e-05
-7.53996792e-05	-4.27334671e-05
-5.55866427e-05	-2.33527280e-05
-4.57227943e-05	-7.52024789e-05
-3.17434060e-05	-5.78730142e-05
-4.09999957e-05	-6.54421747e-05
-4.64107361e-05	-4.56087400e-05
-2.88665342e-05	5.18708111e-06
-6.63080791e-05	-1.57735849e-05
-9.79929537e-05	-3.20510189e-05
-9.70404071e-05	-3.88014705e-05
-4.47109123e-05	-6.74045004e-05
-5.99405103e-05	-5.97311046e-05
-2.56473068e-05	-2.69096763e-05
-9.07514768e-05	-3.20222898e-05
-1.24994360e-04	-2.97115839e-05
-5.34863029e-05	-6.48115965e-05
-6.18543709e-05	-7.02123998e-07
-9.83293285e-05	-4.87042926e-05
-6.08442206e-05	-9.82534038e-06
-6.94914561e-05	7.10239510e-06
1.57879404e-05	-3.23538334e-05
-7.99880945e-05	-1.55664275e-05
-7.52974938e-06	-2.93210996e-05
-2.82783076e-05	-3.22857304e-05
-8.91246091e-05	-3.04365112e-05
-9.73720453e-05	-2.37599488e-05
-2.52803820e-05	-6.60579317e-05
1.60257878e-05	6.06435697e-06
-5.56208324e-05	-4.73624823e-06
