Dangerplot_version	1.0
Number_of_points	1024
Sampling_frequency	2.00000000e+03
Transmitter_frequency	1.27786142e+08
Phi0	0
Phi1	0
PPM_reference	4.70000000e+00
Real_FID	Imag_FID	
1.37608126e-03	-3.44626023e-05
1.74934394e-03	8.18355475e-04
2.49827572e-04	9.42517188e-04
-2.93828460e-04	2.30492034e-04
3.17293016e-05	-2.57578155e-04
3.45451350e-04	-2.39382556e-04
2.67859112e-04	-1.01556579e-05
-2.58698092e-05	1.86828693e-05
-1.83456985e-04	-1.18191761e-04
-1.87046506e-04	-3.30547744e-04
-1.28538071e-04	-5.22480463e-04
8.78251449e-05	-5.99433493e-04
2.89387128e-04	-4.22502868e-04
2.40270092e-04	-1.70335421e-04
-4.26161569e-06	-1.53633780e-04
-1.91354076e-04	-3.82442726e-04
-1.18329714e-04	-5.53766731e-04
9.53844137e-05	-5.18663961e-04
2.31926504e-04	-3.69116955e-04
2.23817333e-04	-1.99651768e-04
8.04355732e-05	-8.07151155e-05
-7.20127209e-05	-5.66961608e-05
-1.94753404e-04	-1.27980020e-04
-1.48886713e-04	-1.86940117e-04
-7.58034948e-05	-1.20889454e-04
-1.79161114e-04	5.79386688e-06
-4.17717907e-04	-3.35625227e-05
-4.86442237e-04	-2.19704132e-04
-3.09519266e-04	-3.65893065e-04
-1.16508047e-04	-2.55410123e-04
-1.24855869e-04	-7.06811261e-05
-3.17038590e-04	5.27273078e-05
-4.88998834e-04	-7.71020132e-06
-5.33342652e-04	-1.06323263e-04
-4.88326070e-04	-2.12463769e-04
-3.96890391e-04	-2.25461350e-04
-3.72427574e-04	-1.85968616e-04
-4.02399106e-04	-8.76009290e-05
-4.94027801e-04	-8.84420442e-05
-5.47195494e-04	-1.79792289e-04
-4.57630027e-04	-2.67907395e-04
-3.01044725e-04	-2.18277011e-04
-3.11215554e-04	-5.14498533e-05
-4.59588453e-04	2.46319978e-05
-5.55706967e-04	-6.40039798e-05
-5.10342885e-04	-1.82177828e-04
-4.05156985e-04	-1.84081553e-04
-3.71021655e-04	-4.40347067e-05
-4.09783301e-04	8.26955802e-05
-5.90698328e-04	1.35188864e-04
-7.20515149e-04	6.54805917e-05
-7.82718882e-04	-1.03607075e-04
-6.80448662e-04	-2.13783729e-04
-5.31595724e-04	-2.00044233e-04
-4.94149805e-04	-9.53836134e-05
-5.50200348e-04	-1.99705828e-05
-6.19924336e-04	-7.04639242e-05
-6.14313176e-04	-1.43687299e-04
-5.21408627e-04	-1.33624373e-04
-5.22464397e-04	-3.86718020e-05
-5.82460198e-04	4.51087253e-05
-7.13123358e-04	9.80318873e-06
-7.72094703e-04	-8.86756170e-05
-7.21793855e-04	-1.68156606e-04
-6.04222994e-04	-2.04059601e-04
-5.10275015e-04	-1.31720692e-04
-4.85505239e-04	-4.64035838e-05
-5.80219319e-04	6.48616406e-05
-6.79611228e-04	4.82563919e-05
-7.36400310e-04	-1.22212514e-05
-6.79006451e-04	-6.17566111e-05
-6.82296522e-04	-6.20583305e-05
-7.14242575e-04	-3.15893558e-05
-7.91554106e-04	-4.87113721e-05
-7.94609077e-04	-1.60003256e-04
-6.84675411e-04	-2.20444170e-04
-5.97396400e-04	-1.56753129e-04
-5.82273933e-04	-6.02249056e-05
-6.96068862e-04	2.28153367e-05
-7.90620863e-04	9.58170858e-06
-8.30203295e-04	-1.05480955e-04
-8.08541023e-04	-2.25253898e-04
-7.05023354e-04	-2.34720268e-04
-6.05850364e-04	-1.86160571e-04
-5.99485706e-04	-9.92299465e-05
-6.27586269e-04	-6.46077679e-05
-6.48372108e-04	-8.69141368e-05
-6.18937018e-04	-7.33772758e-05
-6.14145538e-04	-4.43053432e-06
-6.67207816e-04	6.13673765e-05
-7.91344326e-04	5.76448801e-05
-8.56898841e-04	-2.23188836e-05
-8.71818105e-04	-1.35868177e-04
-7.86151970e-04	-2.20599992e-04
-6.91887108e-04	-2.06408382e-04
-6.50803908e-04	-1.23673119e-04
-6.93500275e-04	-6.68969587e-05
-7.63669785e-04	-6.88824512e-05
-7.69884675e-04	-1.19926204e-04
-7.30239379e-04	-1.61472562e-04
-6.83397288e-04	-9.84495273e-05
-7.05092214e-04	-8.47939809e-05
-7.53729546e-04	-8.32362275e-05
-7.77519075e-04	-1.40408811e-04
-7.47444283e-04	-2.06049648e-04
-6.43609208e-04	-1.99235234e-04
-5.71349054e-04	-1.36488277e-04
-6.00277679e-04	-4.24772152e-05
-6.76120748e-04	3.72590439e-05
-7.71307270e-04	1.49809930e-05
-7.94161810e-04	-5.52648853e-05
-7.56642839e-04	-1.13606511e-04
-6.99622382e-04	-9.79069446e-05
-6.72769733e-04	-7.39015813e-05
-6.99393218e-04	-6.12541044e-05
-7.46039557e-04	-6.75215269e-05
-7.33511639e-04	-1.12297654e-04
-6.92666566e-04	-1.31479523e-04
-6.59876503e-04	-9.39644524e-05
-7.07692991e-04	-5.91096468e-05
-7.68447062e-04	-6.78729848e-05
-7.62599870e-04	-1.42974459e-04
-7.06481398e-04	-1.92162959e-04
-6.15548342e-04	-1.65129255e-04
-5.78107312e-04	-8.94543482e-05
-6.22261723e-04	-3.52042262e-05
-6.78103650e-04	-2.30824517e-05
-7.06860796e-04	-7.35466601e-05
-6.73611648e-04	-1.09326211e-04
-6.45525055e-04	-1.02384278e-04
-5.98674465e-04	-4.53215325e-05
-6.47685549e-04	-3.10159521e-07
-7.04054954e-04	-1.18939497e-05
-7.30401487e-04	-5.66393137e-05
-7.09781481e-04	-8.53597303e-05
-6.42745988e-04	-9.58658929e-05
-6.34945463e-04	-5.03481424e-05
-6.50510425e-04	-9.97527968e-06
-6.95786090e-04	-4.71539970e-05
-6.96700241e-04	-1.12122740e-04
-6.77257369e-04	-1.47712810e-04
-5.97347040e-04	-1.40865741e-04
-5.39895322e-04	-7.06624996e-05
-5.47553587e-04	2.08866550e-06
-6.09334325e-04	2.66882416e-05
-6.69614645e-04	-2.59209774e-05
-6.67808636e-04	-3.89684283e-05
-6.36701821e-04	-6.94593327e-05
-6.03980327e-04	-4.04262973e-05
-6.32956275e-04	-5.60076442e-05
-6.33078627e-04	-3.40295082e-05
-5.90309850e-04	-6.62950479e-05
-5.54851547e-04	-6.00468193e-05
-4.98262059e-04	-3.06576258e-05
-5.35896688e-04	3.22184351e-05
-5.91249845e-04	6.24432578e-05
-6.34870608e-04	5.45315270e-05
-6.43398787e-04	-5.02125476e-06
-6.25096844e-04	-2.57179199e-05
-5.85693517e-04	-4.26986662e-05
-5.81507978e-04	-1.54986483e-05
-5.88631199e-04	-4.31652006e-06
-5.84598049e-04	-1.75886380e-05
-5.71056386e-04	-3.54397635e-05
-5.31545084e-04	-1.06487132e-05
-5.21398615e-04	1.35155860e-05
-5.44227194e-04	5.24911738e-05
-5.62294212e-04	4.05342143e-05
-5.49971825e-04	-8.39411223e-06
-5.22178016e-04	-5.31635451e-05
-4.85023949e-04	-1.77120382e-05
-4.31450200e-04	1.02099148e-05
-4.67444595e-04	6.88692380e-05
-5.34649182e-04	1.14729890e-04
-5.48587006e-04	1.15740957e-04
-5.47893811e-04	7.20398530e-05
-5.38970344e-04	3.61905404e-05
-5.33029088e-04	4.33890236e-05
-5.17992768e-04	2.77943764e-05
-5.31006255e-04	4.38430579e-05
-5.09344623e-04	1.40853517e-05
-4.96542430e-04	-4.64831828e-07
-4.38190007e-04	1.62420911e-05
-3.92170798e-04	7.26509388e-05
-4.40717733e-04	1.23316073e-04
-4.49971587e-04	1.40962904e-04
-5.07155608e-04	1.24947415e-04
-5.17889624e-04	9.01562889e-05
-4.63873497e-04	5.83691581e-05
-4.40329663e-04	6.78549186e-05
-4.33452602e-04	8.32605147e-05
-4.24335129e-04	8.89863513e-05
-4.47074941e-04	1.09896864e-04
-4.25359496e-04	9.46512009e-05
-4.12037713e-04	9.12404648e-05
-4.04036487e-04	1.00727164e-04
-4.12110181e-04	1.33090216e-04
-4.48646140e-04	1.41207653e-04
-4.55369183e-04	1.20871795e-04
-4.30434011e-04	8.91358359e-05
-3.86807136e-04	9.59591707e-05
-3.62200342e-04	1.11798283e-04
-3.73808434e-04	1.36326678e-04
-3.80695390e-04	1.24696555e-04
-4.06221545e-04	1.43284822e-04
-4.16921393e-04	1.26039144e-04
-3.81033809e-04	1.13280577e-04
-3.79254518e-04	1.26558225e-04
-3.82759987e-04	1.10301335e-04
-3.56100500e-04	1.25381281e-04
-3.46349552e-04	1.11549874e-04
-3.18018807e-04	1.14509065e-04
-3.05008056e-04	1.39106371e-04
-3.04952264e-04	1.55851856e-04
-3.34492564e-04	1.84253702e-04
-3.46763496e-04	1.65324396e-04
-3.53285286e-04	1.49358922e-04
-3.35234596e-04	1.52891371e-04
-3.15460929e-04	1.61496486e-04
-3.11056443e-04	2.06166282e-04
-3.22827196e-04	2.09748148e-04
-3.44924891e-04	1.71731168e-04
-3.51014227e-04	1.54090929e-04
-3.25809116e-04	1.48206571e-04
-2.84830807e-04	1.63217104e-04
-2.73782643e-04	1.56022361e-04
-2.81419052e-04	1.72971864e-04
-2.75814848e-04	1.61348857e-04
-2.58321641e-04	1.63449644e-04
-2.43439936e-04	1.65102509e-04
-2.65986979e-04	1.66562735e-04
-2.71463854e-04	2.01550298e-04
-2.80435721e-04	2.15982975e-04
-2.94318423e-04	2.13016305e-04
-2.95032602e-04	1.76739501e-04
-2.84616777e-04	1.57474307e-04
-2.31694037e-04	1.69506791e-04
-2.30943187e-04	2.04300697e-04
-2.34722422e-04	2.07093661e-04
-2.59610068e-04	2.08138590e-04
-2.37998436e-04	2.08774349e-04
-2.11319551e-04	1.97938280e-04
-2.16078217e-04	1.82247619e-04
-2.17859997e-04	2.30793783e-04
-2.57866457e-04	2.15294960e-04
-2.39820220e-04	1.89558225e-04
-2.25805648e-04	1.71218344e-04
-1.89227663e-04	1.81082738e-04
-1.90482824e-04	1.98038790e-04
-1.77140464e-04	2.17202687e-04
-1.96179753e-04	2.30080856e-04
-2.08023906e-04	2.20294780e-04
-2.09625738e-04	2.03404168e-04
-1.82999109e-04	2.10063343e-04
-2.02935626e-04	2.10837854e-04
-1.89214566e-04	2.02880386e-04
-2.00751252e-04	2.09371996e-04
-1.77606344e-04	2.05728458e-04
-1.85744138e-04	1.73792156e-04
-1.41849130e-04	2.21238952e-04
-1.45822138e-04	2.24134565e-04
-1.52452514e-04	2.40631111e-04
-1.77232476e-04	2.28550649e-04
-1.69366816e-04	2.07906152e-04
-1.72269967e-04	1.99179500e-04
-1.48420702e-04	1.85209850e-04
-1.37295778e-04	1.83258569e-04
-1.31662659e-04	2.09189209e-04
-1.46554972e-04	1.99101400e-04
-1.52880151e-04	2.00735580e-04
-1.16730327e-04	1.93454325e-04
-1.14955008e-04	2.10617931e-04
-1.09149631e-04	2.12482933e-04
-1.15719158e-04	2.29593395e-04
-1.43693585e-04	2.18602174e-04
-1.39531126e-04	2.09108155e-04
-1.17675685e-04	1.92904830e-04
-1.00697143e-04	2.08303725e-04
-7.67741294e-05	2.17206063e-04
-7.99577247e-05	2.27933866e-04
-1.12762369e-04	2.21119175e-04
-1.14676310e-04	2.18950954e-04
-9.07100621e-05	2.10685452e-04
-7.83776195e-05	2.05074364e-04
-8.58673811e-05	2.24097923e-04
-9.08112779e-05	2.25663913e-04
-9.95410956e-05	2.13553198e-04
-9.40996251e-05	2.13750711e-04
-8.93491379e-05	1.80453528e-04
-7.36622678e-05	1.88149803e-04
-6.85542764e-05	2.24342046e-04
-5.69293043e-05	2.32608421e-04
-6.78500219e-05	2.16384491e-04
-6.50021466e-05	1.91813640e-04
-6.66436099e-05	1.87068290e-04
-4.80994422e-05	1.85122204e-04
-5.23122471e-05	2.17332316e-04
-4.84565790e-05	2.23529671e-04
-3.57873796e-05	2.25656680e-04
-4.69755905e-05	1.89548970e-04
-4.42103119e-05	1.94078486e-04
-4.91798637e-05	2.01946968e-04
-2.86033064e-05	2.04811833e-04
-4.55701374e-05	2.12584608e-04
-5.74422811e-05	2.01820541e-04
-4.76571076e-05	1.89747661e-04
-2.64236296e-05	1.90276813e-04
-3.78888981e-05	1.89118320e-04
-4.01523503e-05	1.98769761e-04
-3.96518371e-05	1.80741656e-04
-6.01121537e-05	1.87879879e-04
-4.09810636e-05	1.84300254e-04
-2.49064797e-05	1.66105194e-04
-5.50680488e-06	1.97066503e-04
-1.69040723e-05	1.95246059e-04
-1.87763981e-05	2.09568170e-04
-1.51954191e-05	1.77764741e-04
-2.46073287e-05	1.73053020e-04
-1.62938668e-05	1.71537788e-04
-5.42962880e-06	2.00672657e-04
-1.35103946e-05	1.84620032e-04
-2.92789373e-05	1.87755883e-04
-1.14170580e-05	1.84384626e-04
1.61801654e-06	1.47761632e-04
7.63068601e-06	1.51816654e-04
4.04187449e-06	1.80621515e-04
-6.67255881e-06	1.82438205e-04
1.57917129e-05	1.98677750e-04
8.10934034e-06	1.53971734e-04
2.78691004e-06	1.51078377e-04
1.84406163e-05	1.70507454e-04
1.73709122e-06	1.52945620e-04
-2.06860677e-05	1.66049300e-04
6.37656922e-06	1.79809547e-04
8.55871622e-06	1.53630070e-04
4.48448191e-06	1.29948734e-04
-2.44008697e-06	1.60679177e-04
2.42607057e-05	1.65911930e-04
1.62994438e-05	1.81165145e-04
4.40242002e-06	1.72029017e-04
8.56382030e-06	1.58752198e-04
1.66292302e-05	1.45501457e-04
3.45017324e-05	1.48100386e-04
3.79473349e-05	1.69404666e-04
9.28961163e-06	1.63432458e-04
1.71608772e-05	1.66840793e-04
1.97844165e-05	1.62610319e-04
1.46210987e-05	1.51814718e-04
2.48854085e-05	1.43693149e-04
4.04265738e-05	1.60249401e-04
6.73723480e-06	1.65261779e-04
2.53840299e-05	1.65630670e-04
1.71893462e-05	1.45898899e-04
2.78400330e-05	1.45891870e-04
5.13614505e-05	1.43412384e-04
4.31960980e-05	1.34257789e-04
-4.90726961e-08	1.51117420e-04
1.61329808e-05	1.63301898e-04
1.85825156e-05	1.47730490e-04
4.09516651e-05	1.34290982e-04
4.47336242e-05	1.20008706e-04
4.18589880e-05	1.44090634e-04
3.92158217e-05	1.30998116e-04
4.46751365e-05	1.11564899e-04
2.59013468e-05	1.07409076e-04
5.63354151e-05	1.16871117e-04
4.14902715e-05	1.06546562e-04
5.01149334e-05	1.17975396e-04
3.88047920e-05	1.36998249e-04
2.64256050e-05	1.29448614e-04
1.88297709e-05	1.26355895e-04
2.60833258e-05	1.25824299e-04
3.34698489e-05	1.32428759e-04
3.44066830e-05	1.17776421e-04
3.58591533e-05	1.32926842e-04
5.43310744e-05	1.23481164e-04
5.75046834e-05	1.03440900e-04
3.64589105e-05	1.17931202e-04
4.39661781e-05	1.10973007e-04
5.58080501e-05	1.19654833e-04
3.61485509e-05	1.15786796e-04
6.62945095e-05	1.06256965e-04
3.82966282e-05	1.04138882e-04
3.44309665e-05	1.08298213e-04
5.68312607e-05	1.09017637e-04
4.30215223e-05	9.90176195e-05
1.98839607e-05	1.15867719e-04
2.40995414e-05	1.04210114e-04
4.09241438e-05	1.01124002e-04
4.37604031e-05	9.34435666e-05
5.36350417e-05	9.58145538e-05
5.86216411e-05	1.18429372e-04
3.73133989e-05	1.04596569e-04
2.09847622e-05	8.45099858e-05
3.02820008e-05	7.55422079e-05
6.20692517e-05	1.13019072e-04
6.00100248e-05	1.07764761e-04
3.92703841e-05	9.27700094e-05
1.29323525e-05	9.45010615e-05
4.45450205e-05	1.09094428e-04
2.77100171e-05	9.41912149e-05
4.69880652e-05	8.70047006e-05
4.53309367e-05	1.13095673e-04
5.62574460e-05	9.28053487e-05
3.32352211e-05	8.83673929e-05
3.76753669e-05	1.02787395e-04
5.19749119e-05	8.18134140e-05
5.35277250e-05	9.68958921e-05
5.10234386e-05	9.53752242e-05
1.74037923e-05	6.86654093e-05
4.87065408e-05	8.29886267e-05
6.77029020e-05	9.17575817e-05
5.17538028e-05	7.08045336e-05
3.17754275e-05	7.17512012e-05
3.13574419e-05	8.58997082e-05
4.41230113e-05	6.15565659e-05
3.54287076e-05	6.38919082e-05
4.20030410e-05	8.96314159e-05
4.53402863e-05	7.13542177e-05
5.97296166e-05	7.20897660e-05
5.79427069e-05	8.43073431e-05
1.95995799e-05	8.90430820e-05
4.25583494e-05	4.26090737e-05
2.07156409e-05	5.54401850e-05
3.69592744e-05	5.91708995e-05
5.00767273e-05	4.68000035e-05
5.50370241e-05	6.71705420e-05
4.31348162e-05	8.03779112e-05
3.17470840e-05	8.02126597e-05
3.23673084e-05	6.10521456e-05
3.65707929e-05	5.81536115e-05
2.89395539e-05	5.43164606e-05
5.39672401e-05	7.13562913e-05
2.75494021e-05	7.46806327e-05
2.72874022e-05	7.11899629e-05
4.07401058e-05	6.09935560e-05
2.29854850e-05	5.49223369e-05
2.31913400e-05	6.40317376e-05
3.05850699e-05	6.92539470e-05
3.87471737e-05	7.13372356e-05
3.89831657e-05	4.97539477e-05
2.43360428e-05	6.56263510e-05
2.05832257e-05	5.64492657e-05
4.21612021e-05	4.19353564e-05
4.30922519e-05	4.36075206e-05
3.39948165e-05	4.42022101e-05
2.66574607e-05	5.08279154e-05
3.97303738e-05	6.30932482e-05
3.06380898e-05	2.96001926e-05
4.53719040e-05	5.03619376e-05
2.71721547e-05	4.20948345e-05
3.19515129e-05	3.86439206e-05
4.25754697e-05	4.02472142e-05
1.31460065e-05	5.79046173e-05
3.40102997e-05	3.53827563e-05
3.76945900e-05	3.81304817e-05
3.30230432e-05	3.65205997e-05
1.95849498e-05	5.33133716e-05
2.25366530e-05	3.99130331e-05
2.77145809e-05	3.57272911e-05
9.16647787e-06	4.45925180e-05
5.37242668e-05	2.58157925e-05
3.19369392e-05	4.41962038e-05
2.10183425e-05	5.57906242e-05
2.19560188e-05	3.63594845e-05
3.25357614e-05	4.61095187e-05
4.04135208e-05	3.17106860e-05
2.80722434e-05	5.32410340e-05
2.69120046e-05	3.90176720e-05
4.04452803e-05	4.66429410e-05
4.20884789e-05	3.58865691e-05
1.67096732e-05	2.69080138e-05
4.82264913e-05	2.68124786e-05
5.09349629e-05	2.98744162e-05
2.35284260e-05	2.11465303e-05
1.35740465e-05	3.69321206e-05
3.37281381e-05	2.01259318e-05
3.76281350e-05	3.25628462e-05
4.12226400e-05	3.19067331e-05
2.58277105e-05	2.02689735e-05
8.12841699e-06	3.73693547e-05
3.48659123e-05	2.70109722e-05
2.50941976e-05	2.28838180e-05
2.13944186e-05	1.94685708e-05
1.68304578e-05	2.80071945e-05
1.77080510e-05	3.84499617e-05
2.44185703e-05	3.50106056e-05
1.51550103e-05	2.94620786e-05
1.85208664e-05	1.68637216e-05
3.50881819e-05	3.05948342e-05
1.09201746e-05	3.17604572e-05
2.44447074e-05	4.73770160e-05
1.49497491e-05	3.79228477e-05
1.07381948e-05	2.48390188e-05
3.14085846e-05	1.45307204e-05
2.29196557e-05	2.04825665e-06
8.05975469e-06	1.82055483e-05
3.74655028e-05	1.96535420e-05
2.44184248e-05	1.91541039e-05
2.99956046e-05	5.27079055e-06
-6.46821218e-06	5.42010775e-06
4.29673455e-05	8.49740616e-07
1.83626144e-05	2.57508127e-05
1.01238757e-05	1.96958226e-05
2.17746547e-05	2.05663528e-05
7.76053184e-06	8.45576506e-06
2.73603837e-05	8.29191777e-06
1.79846265e-05	2.04375210e-05
1.74071592e-05	1.93352898e-05
1.55660910e-05	1.74976030e-05
1.88767353e-05	2.76935370e-05
7.57941916e-06	4.02680635e-05
6.10919460e-06	3.53774885e-05
1.72390464e-05	8.77027651e-06
1.51008035e-05	3.19182436e-05
5.04236777e-06	2.32589427e-05
-1.32014907e-06	1.88245685e-05
2.20524362e-05	9.29183079e-06
3.43819811e-05	1.57856430e-05
2.00190698e-05	9.22593335e-06
2.09740847e-05	2.52290283e-05
4.28496824e-05	1.70620624e-05
8.08081313e-06	2.28904737e-05
2.38293796e-05	1.91663530e-05
1.08918312e-05	-6.44636293e-06
3.91454341e-05	2.41297857e-06
1.09835601e-05	2.22941526e-05
1.81281084e-05	2.30834376e-05
3.52784482e-05	4.15172399e-05
1.99859915e-06	2.11261176e-05
1.29897080e-06	-2.66130951e-06
1.17794625e-05	2.57055945e-07
2.29926518e-05	8.72355577e-06
2.53520229e-05	1.01591340e-05
8.46215880e-06	-1.29858809e-05
1.98066446e-05	2.65963408e-05
2.12957257e-05	9.85178303e-07
9.26856046e-06	1.35461842e-05
4.16613420e-06	2.71724748e-05
1.36766257e-05	2.83674381e-05
1.41931623e-05	2.65747731e-05
1.38996402e-05	1.32017813e-05
1.39252734e-06	2.59197896e-05
1.82421009e-05	1.90731334e-05
1.86078232e-05	2.69033590e-05
1.04482142e-05	1.26170617e-05
3.92263428e-05	7.25716836e-06
2.26145276e-05	3.71594251e-05
1.82870590e-05	2.97144979e-05
7.99610916e-06	1.53687051e-05
1.30105664e-05	9.12260566e-06
2.71504141e-05	-4.51440610e-06
3.32457930e-05	-1.36274321e-05
2.42638016e-05	5.16144155e-06
1.86817470e-05	-8.52827543e-06
2.19354115e-05	1.62774177e-05
1.74705274e-05	1.75175956e-05
-2.96222834e-06	1.61281005e-05
1.36544932e-05	1.30259868e-05
1.07648020e-06	1.07047526e-05
1.38883815e-05	4.16684452e-06
2.84413109e-05	9.82502752e-06
-7.23102767e-06	9.12425276e-06
1.59126012e-05	1.80763127e-05
1.14017603e-05	2.48254655e-05
1.10643932e-05	1.79803737e-05
5.48169146e-06	9.35870594e-06
4.08722044e-05	2.37028707e-05
4.14077003e-05	9.30927763e-06
1.52915691e-05	8.83609118e-06
2.01727853e-05	1.64341654e-05
3.82310900e-05	8.44202259e-06
2.10546204e-05	1.29086429e-05
2.95419650e-05	2.71752651e-05
8.26731502e-06	-7.12534256e-06
1.75959776e-05	7.25777409e-06
2.81222274e-05	1.25254219e-05
1.29703885e-05	-1.70510839e-06
2.27843630e-05	2.27016226e-05
1.50548949e-05	8.91034324e-06
1.85547069e-05	-9.13630447e-06
2.30131554e-05	1.22505662e-06
2.73555161e-05	1.94748554e-06
-3.06814127e-06	6.04621118e-06
2.32996172e-05	-8.72965029e-06
1.12573271e-05	8.90609499e-07
1.72376313e-05	1.62863180e-05
1.25175266e-05	1.55355337e-08
2.15127111e-05	6.53443385e-06
-1.08071472e-05	1.30138906e-05
1.40820321e-05	2.00111172e-05
-3.18575212e-06	7.77183413e-06
4.23933670e-06	7.40914584e-06
2.97702827e-05	3.10356736e-05
3.19795909e-05	-6.90229081e-06
8.68737789e-06	3.25376750e-05
2.36750002e-05	2.48759916e-05
1.58727253e-05	2.07043304e-05
2.89204600e-05	1.26596988e-05
1.66445316e-05	7.39230336e-06
3.04657297e-05	1.92757579e-06
2.57744687e-05	5.35112940e-06
3.47977548e-05	7.41530039e-06
3.63580184e-05	1.16625988e-05
3.11217336e-05	1.10522451e-05
3.69413247e-05	-9.05744309e-06
1.74249835e-05	-8.96654819e-06
1.81141968e-05	-1.20567165e-07
1.20279128e-06	2.51351667e-05
-1.21576149e-05	7.52573487e-06
1.50687865e-05	-9.11754432e-06
4.82593441e-06	1.20138047e-05
-1.07840588e-05	1.42742774e-05
5.11264034e-07	7.50894105e-06
4.86712270e-06	3.12967222e-06
1.36095537e-06	1.70755229e-05
1.30526205e-05	1.05509262e-05
1.11819654e-05	1.75133937e-05
1.79676590e-05	2.77323943e-06
1.54659647e-05	4.53878692e-06
2.79211181e-05	2.06412733e-05
3.80027564e-06	1.77851161e-05
1.79907988e-06	5.07326922e-06
1.73314238e-05	1.77869388e-05
2.13914245e-05	1.04516648e-05
2.53594026e-05	2.31714021e-05
2.35600710e-05	2.77587351e-05
4.42242663e-06	1.39783806e-05
1.47996307e-05	1.72171185e-05
2.23827283e-05	2.31546619e-06
3.45247863e-05	3.77482502e-06
2.61257719e-05	4.12894842e-05
1.01541827e-05	3.46350898e-05
2.38633656e-05	7.76311026e-06
1.71050433e-05	2.95125428e-05
2.73545211e-05	1.15776420e-05
2.44454841e-05	-1.44890846e-05
1.66653281e-05	2.53441340e-06
9.87384556e-06	6.40059534e-06
1.57538307e-05	1.70292333e-05
2.87797720e-05	2.48683809e-05
-2.22169183e-06	1.34900638e-05
1.35221035e-06	3.02892167e-05
-4.48507308e-07	1.96018045e-05
2.39062756e-05	-7.92527135e-06
2.54595197e-05	1.19465740e-05
2.42483002e-05	8.75170554e-06
7.42771908e-06	1.16892797e-05
9.08762377e-06	7.09088636e-06
1.05109848e-05	2.50957710e-05
1.65499951e-05	1.27168023e-05
5.74230307e-06	1.80334191e-05
2.38367538e-05	1.59285719e-05
2.04869903e-05	8.26669384e-06
7.86264900e-06	8.27383883e-06
1.65373713e-05	3.78565528e-06
2.92621626e-05	2.28737008e-07
1.69802934e-05	1.58546136e-05
9.37708410e-06	-1.10552969e-06
-8.15165185e-06	2.27286619e-05
7.59569957e-06	-4.54436395e-06
1.40578140e-05	3.86658621e-06
2.89087075e-05	4.39055657e-06
1.03179118e-05	5.71388227e-06
3.79976809e-05	-2.64399205e-06
3.05878384e-05	1.47859655e-05
1.63177428e-05	5.69478107e-06
1.28245265e-05	1.53829787e-05
-1.42348517e-05	7.25981681e-06
1.68619808e-05	1.11633590e-05
1.11502504e-06	6.89704302e-06
-5.64365428e-06	6.19657385e-06
5.35016079e-06	6.51825803e-06
1.36770832e-05	7.83034830e-06
2.00303075e-05	7.26723420e-06
6.90048546e-06	2.86568393e-05
6.52868312e-06	1.88959857e-05
1.88133436e-05	2.48501401e-05
-1.15477551e-05	-3.61324601e-06
-7.55005294e-06	6.09317431e-06
-9.38553603e-06	1.35237660e-05
4.79409073e-06	1.01956202e-05
1.54614099e-09	3.27092421e-05
3.48664726e-05	-1.35728715e-05
1.05587451e-05	1.39148433e-05
6.10976986e-06	3.77805463e-06
1.85998615e-05	1.88245067e-05
8.25939424e-06	-4.91873652e-06
2.01328021e-05	-4.67211567e-06
6.44254897e-06	3.22334608e-06
-5.12405359e-06	1.39858967e-05
2.50833691e-05	-1.50953656e-06
1.23384243e-05	9.34722902e-06
-1.05697372e-05	-4.53945904e-06
3.10152718e-05	1.31129127e-06
2.01260355e-05	5.59043656e-07
2.05376618e-05	-3.46811339e-06
2.46151085e-05	1.07477281e-05
-8.95455560e-06	1.89952298e-05
1.44684454e-05	2.73248152e-05
1.76401572e-05	-6.67096947e-06
2.78739826e-05	1.11164354e-06
2.28969111e-05	9.91813886e-06
1.90493506e-06	4.56241332e-06
6.18033391e-06	1.69951381e-05
7.08983771e-06	2.11316583e-05
1.21531793e-05	-7.74653836e-06
1.15658031e-06	-8.51956975e-06
-2.06388404e-06	1.74570971e-06
-1.08630038e-05	3.45056719e-06
1.35394739e-05	-1.50495343e-05
3.80304982e-06	1.55959005e-05
-1.05973377e-05	-6.87806278e-07
9.69548091e-06	1.30033300e-06
9.03695081e-07	-7.35821322e-06
2.65854633e-05	2.40661120e-06
2.22340122e-06	1.43936395e-05
3.85785415e-06	2.14012707e-05
1.39681342e-05	3.69722511e-06
9.29810449e-06	5.52392748e-06
1.39609783e-05	1.62200249e-05
1.59990232e-05	1.58205858e-05
1.22196961e-05	-1.58952316e-05
1.09898447e-05	2.10481739e-05
3.13015107e-06	-1.58919306e-07
7.17653165e-07	-9.24940650e-06
1.66428563e-05	1.24830276e-05
2.08306847e-05	2.63550919e-06
2.14961747e-05	-1.23662494e-05
1.38894447e-05	6.85088617e-06
5.86140050e-06	-9.76043157e-06
-4.59442617e-08	-7.39762754e-06
8.98060171e-06	-1.27024032e-05
5.90475429e-06	1.22549718e-05
6.72323858e-06	6.84889937e-06
1.47604464e-06	1.61477965e-05
3.01095497e-06	1.50941760e-05
1.02202521e-05	6.16200896e-06
-1.06987754e-05	1.53228011e-05
-4.86753424e-06	1.55187336e-05
4.46091099e-06	-4.63318702e-06
1.99781898e-05	2.18168361e-06
-1.21937328e-05	-2.72936904e-06
1.18264779e-05	2.85177211e-05
5.75632839e-06	3.71830811e-06
1.84048213e-06	1.86631351e-05
1.24745984e-05	2.64159712e-06
-1.36971375e-05	5.10293921e-06
2.22755898e-05	-3.81309474e-06
2.42469232e-05	-9.81967332e-06
2.57235770e-05	-4.29545435e-06
-1.13365622e-05	4.33506102e-06
-6.79351024e-06	1.72132732e-05
6.85372925e-06	-4.57523811e-07
4.35444563e-05	1.71493957e-06
-9.35112985e-06	2.40313566e-05
1.27716453e-06	-1.00663374e-05
6.24166546e-07	-1.90433502e-06
3.50802384e-06	1.08891700e-05
1.65575420e-05	3.28711176e-05
-8.65166498e-07	4.58958857e-06
2.69229477e-05	-2.45654701e-06
1.49977805e-05	2.41438975e-05
-8.16044303e-06	-1.88570084e-05
1.18294611e-05	2.21131950e-06
2.41107937e-05	2.36273008e-05
1.55094349e-05	1.61976513e-05
2.64319006e-05	1.80525694e-06
2.81962411e-06	3.92423044e-06
1.49142288e-05	3.94971266e-06
1.16575427e-06	-3.14843328e-06
2.09152313e-05	-6.68054781e-07
1.51468666e-05	-2.19225831e-06
-1.64571975e-05	3.10806922e-06
6.94128630e-06	2.24005134e-07
-6.49827871e-06	-3.68999781e-06
7.67956863e-07	8.22533639e-06
-4.05210267e-06	-5.19461491e-06
-1.11132249e-06	-1.22797410e-05
6.96793995e-06	-1.52379871e-05
-5.62472542e-06	1.23337941e-06
-2.08726328e-06	-1.03853763e-05
1.60642976e-05	1.05931194e-05
-4.33182322e-07	-2.22241106e-05
9.66450352e-06	5.89139563e-06
-1.36762683e-05	1.59414139e-06
-4.33675223e-06	2.38903031e-05
-3.59285582e-06	1.51204667e-05
9.32608714e-07	-7.48114417e-06
2.26134944e-05	1.62643573e-06
2.50833291e-05	-5.66213203e-07
-1.57132672e-05	-9.25309087e-06
4.27260920e-06	1.18888795e-06
3.14597091e-05	1.11535937e-05
2.87888952e-06	7.98429596e-07
1.05064037e-05	1.58012645e-05
1.10613848e-06	1.80900258e-07
3.05535923e-06	1.23064992e-05
-3.74244678e-06	-8.03223065e-06
-6.44269403e-06	8.74704619e-06
-1.67830585e-05	8.32336718e-06
8.82114546e-06	-1.49139159e-05
8.51261939e-06	-1.97124846e-05
-8.91790660e-06	-2.48893248e-05
-1.04773317e-05	9.33815136e-06
-1.17074615e-05	-1.62291735e-06
2.46454192e-07	-5.96531527e-06
1.05452796e-06	-6.88174282e-07
7.08010293e-06	-2.50650737e-06
8.49759454e-06	3.89349498e-06
-4.02887872e-06	-7.54766415e-06
-1.04086087e-06	-5.04989885e-06
-6.97609266e-07	-1.10332330e-05
6.01758302e-07	-8.72159308e-06
-1.16814308e-05	5.35680283e-06
-1.01493179e-05	4.91920764e-06
-6.08367918e-06	9.98678297e-06
-4.03966351e-06	3.18144930e-06
7.91921320e-06	2.16280641e-05
-4.66975871e-06	-4.67280961e-06
-1.08807344e-05	-3.31129377e-06
-8.17050204e-06	1.59067872e-06
-7.57690032e-06	3.02145236e-06
-4.48032893e-07	-2.03680315e-06
5.39081611e-06	1.76261642e-06
-8.99723454e-06	1.77600850e-06
-6.90828392e-06	3.43105989e-06
1.06082762e-05	-2.29540019e-05
2.86322720e-05	-5.13652867e-06
-1.11526333e-07	-1.32029054e-05
1.98766475e-06	-1.08520208e-05
7.46586238e-07	5.64628317e-06
-1.00889511e-05	3.11695567e-06
1.39311578e-05	4.26117231e-06
-8.61357239e-06	-7.64813012e-06
3.38170889e-06	5.05401090e-07
6.39142127e-06	1.64475150e-05
-2.69918428e-06	1.62635242e-05
-1.61530352e-05	-3.43513193e-06
-3.69498366e-06	1.77115726e-05
-7.41035410e-06	8.43916041e-06
1.54301033e-05	1.07765318e-05
-1.38054893e-05	-1.28153788e-05
-1.71658503e-05	6.53073039e-06
1.49501702e-05	-1.92045718e-07
3.82692406e-06	-8.35385163e-06
-2.46896379e-05	9.93722551e-06
2.95889572e-06	2.52345239e-06
-5.88788407e-06	-1.37067891e-05
-1.43760062e-05	1.14156401e-05
-1.56405949e-05	6.22941297e-06
9.18011847e-06	-1.66728241e-05
-4.39314090e-06	-7.83490032e-06
1.37459642e-06	2.57651527e-06
3.19946821e-06	-1.00772113e-05
-7.62227319e-06	7.05838511e-06
8.88748673e-06	-4.23024221e-06
-1.14092845e-05	-1.78511673e-05
-7.08416155e-06	7.50822119e-06
-2.12577688e-05	-1.90732007e-05
1.84310720e-05	-3.54417671e-06
-1.22725633e-05	1.33882659e-05
7.50156596e-06	2.17248453e-06
-2.63044103e-06	8.13195220e-06
1.58884200e-06	-5.46145748e-06
-5.00339365e-06	-1.10106002e-05
-1.71073116e-05	1.51848835e-05
2.50711219e-06	3.93923801e-06
2.54850943e-06	-4.79202072e-06
-4.26491897e-06	-1.05992358e-05
1.00757688e-06	2.81582828e-07
-2.99763224e-06	-1.24401458e-05
9.02785632e-06	-1.67781536e-07
-1.35622963e-06	1.99900956e-06
5.03982392e-06	6.49713411e-06
8.50096694e-06	-2.57421380e-06
6.26128804e-06	1.08432541e-05
1.76696585e-06	1.02980166e-05
4.96419989e-06	-3.30140210e-07
-1.29051705e-06	-1.79361223e-06
-6.84974384e-06	-1.08617423e-05
1.66170248e-05	3.13056989e-06
1.78678260e-06	2.66257416e-06
-6.69785140e-06	-8.83189477e-06
1.43415928e-05	-1.30879835e-05
1.43784496e-06	-5.48511980e-06
9.75053081e-06	1.91606014e-05
5.55038878e-06	1.80919069e-05
-4.13431371e-06	-5.20560798e-06
-1.29008924e-07	1.34262700e-06
1.02861013e-05	2.80651766e-05
-1.97953887e-06	1.05155332e-05
-3.47186278e-06	1.08338591e-05
2.26401357e-06	-1.44876083e-06
2.50584662e-06	-8.50971264e-06
6.79824825e-06	-6.68785333e-06
-1.52131761e-05	-1.86333136e-06
-8.47576757e-06	3.59327231e-07
2.84770840e-06	5.84135432e-06
-3.43258580e-06	1.93933215e-06
-1.76963465e-06	3.40203223e-06
-8.27707754e-06	6.64819163e-06
1.62180149e-05	-3.76266371e-06
5.48226490e-06	2.07058861e-06
-2.16624994e-05	2.09112768e-05
4.92156119e-07	4.37597600e-06
5.04946638e-06	1.18643411e-05
1.25168444e-05	-1.28195934e-05
5.99461737e-06	1.34844777e-05
-1.59970841e-05	-9.82137408e-07
-5.53815835e-06	-4.35522270e-06
2.33638693e-05	-1.62512879e-05
8.12008693e-06	-3.23296604e-06
-1.23108148e-05	-2.33362243e-06
1.01473745e-06	3.76249318e-06
8.19081652e-06	-1.27068927e-06
1.30826056e-05	-1.27196590e-05
-2.06754303e-05	-7.82669940e-06
-5.12669203e-06	-3.56801229e-06
4.28364046e-06	9.67344567e-06
-3.08239919e-07	6.68710891e-06
1.18111120e-05	8.83973371e-06
-1.45049989e-06	1.41764103e-05
-6.94801929e-06	-6.40424469e-06
-1.23345098e-05	1.42261524e-05
-5.40320616e-06	1.61520184e-05
1.73375374e-05	1.10569317e-05
1.08165905e-05	9.54749794e-06
-2.90478806e-06	-1.53898372e-06
2.00455379e-05	8.71274096e-06
-1.81146515e-06	1.17581076e-05
1.09657349e-05	1.60337186e-05
1.02594595e-06	1.31767902e-05
1.69293980e-05	-9.24114465e-06
1.49328189e-05	7.00430292e-06
4.80444214e-06	1.13611559e-05
7.10283939e-06	7.88338866e-07
-3.73052944e-06	-6.37782796e-06
7.72049225e-06	1.62273154e-05
-5.13250870e-06	7.93247273e-06
1.37052421e-05	8.19557590e-06
-3.52358893e-06	2.03730315e-06
-1.83262691e-05	-4.12257032e-06
-1.68228435e-05	-6.95417839e-08
-1.86571306e-05	1.88252234e-05
-1.34677866e-05	-5.23434983e-06
8.26328960e-06	6.80322864e-06
-1.25858760e-05	-5.97993812e-06
-2.44820740e-07	-6.65596963e-06
-1.80314528e-05	2.26113771e-05
-9.46977070e-06	-2.15625960e-06
-3.51758081e-06	2.86076374e-06
-8.83868870e-06	3.31244951e-06
-1.29749878e-05	1.20533896e-05
-2.32146976e-06	3.63544109e-06
-9.30733222e-06	-1.41753935e-05
7.82275310e-06	-1.69164241e-06
2.01354055e-06	-1.10808805e-05
1.20760733e-05	-9.59278259e-06
-1.14985041e-05	-1.08511431e-05
7.47025251e-06	-2.47717253e-06
1.16208676e-05	-1.43593559e-06
-1.37487441e-05	-8.23828304e-06
-1.58401581e-05	6.54574160e-06
-1.67946400e-05	4.76561763e-06
1.03587608e-05	1.62622928e-05
-8.49604749e-06	5.24480993e-06
9.82977599e-06	8.79923027e-06
-1.62566575e-05	2.11174665e-05
1.26773675e-05	8.81583401e-06
-3.43291185e-06	4.59523653e-06
1.34127085e-05	-3.90228661e-06
-2.07421454e-06	5.71615101e-06
5.95855090e-06	1.10325500e-05
-4.45656678e-06	1.45522681e-05
1.26175464e-05	-4.37957351e-06
1.97542922e-05	-1.26773166e-05
1.52405828e-05	-1.31601428e-06
-1.77954962e-06	1.71668125e-05
6.66742835e-07	1.18426560e-05
-1.38712157e-05	-1.13554252e-05
7.25883183e-06	-4.65700441e-06
1.92159259e-05	-1.55826765e-05
7.63037588e-06	-1.06660291e-05
6.90467368e-06	-3.27004341e-06
1.04411301e-05	1.53645869e-05
5.18649995e-06	7.98789370e-06
-7.90294143e-06	-2.60344023e-05
-9.56030090e-06	2.41783096e-06
-9.46087948e-06	3.09548659e-06
-1.96587353e-05	8.73917816e-06
-1.94404493e-06	-2.16833143e-07
-2.23699008e-05	1.25904389e-05
-2.18757987e-06	4.67685595e-06
-1.24641065e-05	1.88416052e-05
-2.86723534e-05	1.02165304e-05
3.52270354e-06	2.74645754e-05
-1.94604308e-05	5.99186023e-06
6.41763518e-06	9.07887443e-06
8.19257730e-06	-1.36212320e-05
7.56818918e-06	3.17265153e-06
7.34870810e-07	7.04630429e-06
-1.09390367e-05	1.40185084e-05
6.45469163e-06	4.47211005e-06
-6.26533438e-06	-3.74347337e-06
1.09551129e-05	3.85579688e-06
1.34559286e-05	-6.24105814e-06
-9.69488974e-06	-1.41743567e-05
-6.45459068e-06	9.33773208e-06
-7.37891696e-07	-2.77167892e-05
-6.23219285e-06	-8.43530688e-06
-1.69494942e-05	-2.74854256e-06
-1.63262594e-05	7.86684996e-06
-9.27945621e-06	2.73548676e-06
-1.06731404e-05	-8.61052376e-06
-1.18746784e-05	1.91014224e-05
-7.27723273e-06	-1.08275653e-05
5.03212050e-06	1.21647372e-05
-6.19245839e-06	3.05227950e-05
-2.15337150e-05	1.85096960e-05
-1.21126914e-05	1.73240333e-05
1.26135783e-05	1.95163520e-05
-5.77104402e-06	-5.01468276e-06
4.97538440e-06	-3.82431790e-06
