Dangerplot_version	1.0
Number_of_points	2500
Sampling_frequency	2.99996250e+03
Transmitter_frequency	3.00532698e+08
Phi0	0.00000000e+00
Phi1	0.00000000e+00
PPM_reference	0.00000000e+00
Real_FID	Imag_FID	
-3.27470000e+04	-6.12300000e+03
-2.17050000e+04	-3.08270000e+04
-9.15500000e+03	-1.18010000e+04
-1.19000000e+04	-5.62000000e+03
-8.44900000e+03	2.21800000e+03
-2.01370000e+04	6.19300000e+03
-2.65370000e+04	-1.54100000e+03
-2.42650000e+04	-5.53500000e+03
-2.13240000e+04	-1.06420000e+04
-1.38150000e+04	-6.59100000e+03
-1.77160000e+04	2.53100000e+03
-2.48480000e+04	-2.28600000e+03
-2.16880000e+04	-1.12130000e+04
-1.85080000e+04	-1.18150000e+04
-1.75690000e+04	-1.25450000e+04
-1.19430000e+04	-1.09450000e+04
-1.05910000e+04	-3.99900000e+03
-1.71310000e+04	-3.41700000e+03
-1.70520000e+04	-8.50400000e+03
-1.71180000e+04	-7.50100000e+03
-1.76410000e+04	-1.06930000e+04
-1.17250000e+04	-1.01980000e+04
-1.46130000e+04	-7.19300000e+03
-1.49320000e+04	-9.58800000e+03
-1.41700000e+04	-8.46800000e+03
-1.59900000e+04	-9.87800000e+03
-1.09130000e+04	-1.22150000e+04
-9.22100000e+03	-7.05600000e+03
-1.15600000e+04	-8.90800000e+03
-8.62200000e+03	-8.02100000e+03
-1.10160000e+04	-6.16600000e+03
-1.37010000e+04	-8.70700000e+03
-1.13660000e+04	-1.02060000e+04
-8.92800000e+03	-9.86900000e+03
-6.61400000e+03	-7.09300000e+03
-8.37700000e+03	-5.45000000e+03
-1.09870000e+04	-7.11700000e+03
-1.05670000e+04	-9.87000000e+03
-7.87600000e+03	-1.17620000e+04
-5.91200000e+03	-8.57400000e+03
-4.81500000e+03	-7.00400000e+03
-5.02300000e+03	-2.95100000e+03
-1.02630000e+04	-2.73800000e+03
-1.23030000e+04	-7.30700000e+03
-8.78600000e+03	-1.13270000e+04
-4.94300000e+03	-1.10340000e+04
-2.41700000e+03	-8.11800000e+03
-3.97900000e+03	-2.28700000e+03
-8.83900000e+03	-2.58100000e+03
-9.48100000e+03	-4.61800000e+03
-7.77700000e+03	-7.77900000e+03
-2.78000000e+03	-8.76900000e+03
-1.06800000e+03	-5.10700000e+03
-3.76000000e+03	6.50000000e+01
-7.93400000e+03	-5.72000000e+02
-1.04310000e+04	-3.69200000e+03
-1.01680000e+04	-8.09000000e+03
-6.00100000e+03	-1.03050000e+04
-1.42900000e+03	-6.41500000e+03
-1.28500000e+03	-2.48900000e+03
-3.49800000e+03	-6.06000000e+02
-5.62000000e+03	-2.48000000e+02
-7.74100000e+03	-1.46300000e+03
-7.06000000e+03	-3.66000000e+03
-4.33200000e+03	-3.14600000e+03
-5.85200000e+03	-2.57600000e+03
-5.69800000e+03	-2.46100000e+03
-5.60300000e+03	-1.95000000e+03
-5.43700000e+03	-2.44200000e+03
-4.62000000e+03	-2.81900000e+03
-5.09200000e+03	-1.86300000e+03
-4.96700000e+03	-2.10200000e+03
-5.67900000e+03	-1.89600000e+03
-5.18500000e+03	2.09000000e+02
-6.39300000e+03	-5.52000000e+02
-6.54700000e+03	-6.80000000e+02
-6.63700000e+03	-4.83000000e+02
-6.72100000e+03	-1.33000000e+03
-4.43900000e+03	-2.43400000e+03
-4.94000000e+03	-1.03600000e+03
-5.37500000e+03	-9.68000000e+02
-5.14300000e+03	7.00000000e+00
-6.56600000e+03	3.82000000e+02
-6.75900000e+03	4.89000000e+02
-6.76000000e+03	-1.00000000e+01
-6.74500000e+03	2.56000000e+02
-6.93500000e+03	1.50000000e+01
-7.58500000e+03	1.67000000e+02
-7.32500000e+03	-8.01000000e+02
-6.94300000e+03	-1.16100000e+03
-6.23100000e+03	-1.11000000e+02
-7.44800000e+03	6.04000000e+02
-7.04600000e+03	1.26800000e+03
-7.24200000e+03	2.48000000e+02
-6.03300000e+03	-8.40000000e+01
-5.29300000e+03	6.11000000e+02
-5.75600000e+03	1.73900000e+03
-7.34300000e+03	5.73000000e+02
-8.29900000e+03	8.75000000e+02
-9.21600000e+03	9.26000000e+02
-8.38600000e+03	-2.82000000e+02
-6.39900000e+03	-7.41000000e+02
-6.13200000e+03	5.65000000e+02
-7.52800000e+03	1.21200000e+03
-8.78600000e+03	1.57800000e+03
-8.72000000e+03	1.58500000e+03
-8.43000000e+03	2.46000000e+02
-8.54000000e+03	7.13000000e+02
-7.38700000e+03	2.05000000e+02
-8.47300000e+03	2.43000000e+02
-8.45600000e+03	7.90000000e+02
-7.23800000e+03	6.36000000e+02
-6.89500000e+03	7.62000000e+02
-6.86400000e+03	3.49000000e+02
-7.85200000e+03	5.42000000e+02
-8.39700000e+03	3.00000000e+02
-8.90700000e+03	6.80000000e+02
-8.51300000e+03	-5.96000000e+02
-7.99500000e+03	2.85000000e+02
-8.18300000e+03	7.03000000e+02
-8.34100000e+03	5.78000000e+02
-8.55400000e+03	1.20700000e+03
-9.06300000e+03	7.56000000e+02
-8.53600000e+03	6.91000000e+02
-7.90500000e+03	1.57800000e+03
-8.31300000e+03	4.03000000e+02
-8.27300000e+03	1.61000000e+03
-9.29100000e+03	1.69600000e+03
-9.12400000e+03	6.43000000e+02
-9.09100000e+03	5.02000000e+02
-7.91200000e+03	2.77000000e+02
-8.41100000e+03	2.03000000e+02
-8.72700000e+03	6.36000000e+02
-8.96200000e+03	4.24000000e+02
-1.02700000e+04	3.50000000e+01
-9.57500000e+03	7.90000000e+01
-8.10500000e+03	1.18000000e+02
-7.91700000e+03	6.90000000e+02
-8.60600000e+03	9.93000000e+02
-9.21900000e+03	1.89600000e+03
-8.40900000e+03	1.11300000e+03
-9.34400000e+03	6.56000000e+02
-9.43700000e+03	1.01200000e+03
-1.00390000e+04	1.24400000e+03
-8.87900000e+03	6.81000000e+02
-9.35400000e+03	5.68000000e+02
-9.17000000e+03	5.16000000e+02
-9.11600000e+03	8.25000000e+02
-9.26300000e+03	8.63000000e+02
-8.77900000e+03	-4.08000000e+02
-8.98200000e+03	-1.66000000e+02
-8.67800000e+03	1.14300000e+03
-8.60400000e+03	9.77000000e+02
-9.27500000e+03	7.59000000e+02
-9.53400000e+03	6.46000000e+02
-9.01800000e+03	1.47000000e+02
-8.97900000e+03	-7.21000000e+02
-9.03400000e+03	8.39000000e+02
-9.15600000e+03	-4.87000000e+02
-8.68200000e+03	1.18200000e+03
-1.07020000e+04	6.36000000e+02
-9.38100000e+03	1.03700000e+03
-9.66100000e+03	9.16000000e+02
-9.62800000e+03	6.01000000e+02
-9.90300000e+03	4.19000000e+02
-7.98100000e+03	6.74000000e+02
-9.05300000e+03	3.72000000e+02
-9.70900000e+03	1.47000000e+02
-8.96700000e+03	-3.28000000e+02
-8.77300000e+03	6.80000000e+01
-8.93100000e+03	6.09000000e+02
-9.36200000e+03	7.38000000e+02
-9.23500000e+03	2.42000000e+02
-1.01790000e+04	9.41000000e+02
-9.29800000e+03	2.49000000e+02
-8.79200000e+03	9.15000000e+02
-9.00300000e+03	1.02000000e+02
-9.42000000e+03	1.37300000e+03
-9.98600000e+03	-1.18000000e+02
-9.34600000e+03	-4.86000000e+02
-8.62400000e+03	2.90000000e+02
-9.19300000e+03	-5.87000000e+02
-9.55500000e+03	-7.37000000e+02
-8.14300000e+03	9.94000000e+02
-8.99100000e+03	3.37000000e+02
-8.66000000e+03	4.35000000e+02
-8.66700000e+03	-1.32000000e+02
-1.00310000e+04	-1.86000000e+02
-9.38900000e+03	-2.23000000e+02
-8.92000000e+03	8.68000000e+02
-8.93900000e+03	3.42000000e+02
-9.76100000e+03	4.27000000e+02
-9.08600000e+03	-3.20000000e+02
-9.27200000e+03	4.62000000e+02
-9.43300000e+03	-4.20000000e+01
-8.66100000e+03	5.71000000e+02
-9.06500000e+03	4.80000000e+01
-8.96500000e+03	2.04000000e+02
-9.58400000e+03	-2.64000000e+02
-8.66000000e+03	1.48000000e+02
-1.04050000e+04	5.65000000e+02
-9.02900000e+03	4.32000000e+02
-9.37400000e+03	2.41000000e+02
-9.54100000e+03	6.20000000e+01
-9.20000000e+03	-1.23000000e+02
-8.89800000e+03	9.79000000e+02
-1.00600000e+04	1.00000000e+01
-9.06900000e+03	-7.52000000e+02
-8.36800000e+03	2.89000000e+02
-9.11800000e+03	4.85000000e+02
-9.19100000e+03	4.31000000e+02
-8.02200000e+03	3.23000000e+02
-8.89100000e+03	-1.06900000e+03
-9.60200000e+03	2.50000000e+01
-9.10400000e+03	1.76000000e+02
-8.77200000e+03	-1.07000000e+02
-8.80100000e+03	7.54000000e+02
-9.42200000e+03	5.54000000e+02
-9.11500000e+03	8.49000000e+02
-8.91900000e+03	4.38000000e+02
-8.67500000e+03	1.32000000e+02
-9.75000000e+03	6.54000000e+02
-9.58800000e+03	-3.96000000e+02
-9.73700000e+03	-1.75000000e+02
-9.00700000e+03	-1.11000000e+02
-9.54200000e+03	-3.19000000e+02
-9.37300000e+03	-3.05000000e+02
-9.06600000e+03	-1.12000000e+02
-9.39500000e+03	-1.70000000e+02
-9.70700000e+03	-2.63000000e+02
-9.34300000e+03	-2.50000000e+01
-9.50500000e+03	-3.98000000e+02
-9.03200000e+03	-3.46000000e+02
-9.51900000e+03	-4.09000000e+02
-8.66500000e+03	-2.60000000e+01
-8.74200000e+03	-3.09000000e+02
-8.78600000e+03	7.02000000e+02
-9.63200000e+03	7.37000000e+02
-8.76000000e+03	-5.67000000e+02
-9.57800000e+03	8.98000000e+02
-9.36400000e+03	-2.89000000e+02
-8.84900000e+03	8.88000000e+02
-9.09200000e+03	3.23000000e+02
-8.99800000e+03	-8.29000000e+02
-8.86900000e+03	3.97000000e+02
-9.58000000e+03	1.31000000e+02
-8.09700000e+03	5.87000000e+02
-9.06900000e+03	2.59000000e+02
-9.05000000e+03	7.60000000e+01
-9.28000000e+03	-3.68000000e+02
-8.83700000e+03	9.27000000e+02
-9.54300000e+03	8.90000000e+02
-9.21900000e+03	-5.30000000e+01
-9.35400000e+03	-8.23000000e+02
-9.16300000e+03	2.75000000e+02
-9.07200000e+03	-3.92000000e+02
-9.14700000e+03	8.38000000e+02
-9.01700000e+03	3.53000000e+02
-8.85300000e+03	2.98000000e+02
-9.62300000e+03	1.13000000e+02
-9.03500000e+03	-6.97000000e+02
-9.96400000e+03	2.77000000e+02
-9.36100000e+03	-5.98000000e+02
-9.06200000e+03	3.99000000e+02
-9.17300000e+03	2.51000000e+02
-9.00300000e+03	-4.77000000e+02
-9.10400000e+03	-1.16000000e+02
-9.02600000e+03	3.95000000e+02
-9.31200000e+03	-4.91000000e+02
-9.00300000e+03	9.00000000e+00
-9.32000000e+03	8.40000000e+01
-8.57900000e+03	-4.38000000e+02
-9.39800000e+03	-4.65000000e+02
-9.16700000e+03	5.40000000e+01
-9.34200000e+03	1.24000000e+02
-9.59000000e+03	-4.47000000e+02
-9.53600000e+03	-4.98000000e+02
-9.32600000e+03	-2.59000000e+02
-8.93100000e+03	6.30000000e+02
-8.48900000e+03	-4.05000000e+02
-9.40000000e+03	2.66000000e+02
-8.71200000e+03	1.72000000e+02
-8.35400000e+03	-7.20000000e+01
-9.34700000e+03	5.33000000e+02
-9.95600000e+03	3.78000000e+02
-8.89400000e+03	1.34000000e+02
-9.24600000e+03	-3.70000000e+01
-9.06400000e+03	-4.41000000e+02
-9.37600000e+03	-4.00000000e+00
-9.89000000e+03	-2.19000000e+02
-8.98300000e+03	2.09000000e+02
-9.15800000e+03	-3.55000000e+02
-9.13900000e+03	2.00000000e+01
-9.17300000e+03	1.34800000e+03
-9.86100000e+03	-2.35000000e+02
-8.70200000e+03	1.16000000e+02
-1.03050000e+04	2.93000000e+02
-9.45200000e+03	-4.64000000e+02
-8.83000000e+03	1.68000000e+02
-9.17300000e+03	2.55000000e+02
-9.04600000e+03	-2.86000000e+02
-9.99600000e+03	-7.43000000e+02
-9.20600000e+03	5.52000000e+02
-9.47500000e+03	-8.40000000e+01
-9.54400000e+03	4.51000000e+02
-8.96900000e+03	-3.72000000e+02
-9.37000000e+03	5.13000000e+02
-9.17900000e+03	5.47000000e+02
-9.46300000e+03	-5.10000000e+01
-9.22900000e+03	1.15000000e+02
-9.35300000e+03	1.32000000e+02
-9.23600000e+03	5.90000000e+01
-9.33500000e+03	5.80000000e+01
-9.84800000e+03	-8.90000000e+01
-9.52700000e+03	-6.57000000e+02
-8.90800000e+03	1.22000000e+02
-9.60000000e+03	-5.66000000e+02
-9.40800000e+03	-3.51000000e+02
-9.15900000e+03	-4.92000000e+02
-9.37300000e+03	-1.36000000e+02
-9.47200000e+03	-8.09000000e+02
-9.66200000e+03	1.06000000e+02
-8.83000000e+03	-4.94000000e+02
-9.44000000e+03	4.60000000e+01
-9.03200000e+03	4.86000000e+02
-9.68100000e+03	-4.79000000e+02
-9.38900000e+03	4.88000000e+02
-9.63600000e+03	-4.00000000e+01
-9.06500000e+03	1.47000000e+02
-9.46100000e+03	-1.74000000e+02
-9.09800000e+03	1.75000000e+02
-9.22400000e+03	-2.86000000e+02
-9.27800000e+03	-3.29000000e+02
-9.35100000e+03	5.13000000e+02
-9.25200000e+03	2.51000000e+02
-9.33400000e+03	-2.47000000e+02
-8.85400000e+03	-4.61000000e+02
-9.38500000e+03	-3.36000000e+02
-9.61600000e+03	-8.83000000e+02
-9.53800000e+03	-2.10000000e+02
-8.57900000e+03	-3.20000000e+01
-9.60600000e+03	5.23000000e+02
-8.92900000e+03	1.42000000e+02
-9.71300000e+03	-7.94000000e+02
-9.02100000e+03	9.13000000e+02
-9.63100000e+03	-8.80000000e+01
-8.96900000e+03	-1.92000000e+02
-9.37400000e+03	-3.07000000e+02
-8.78600000e+03	1.40000000e+01
-8.57800000e+03	9.52000000e+02
-9.29600000e+03	-9.49000000e+02
-9.06600000e+03	3.99000000e+02
-9.85300000e+03	-1.40000000e+01
-9.47000000e+03	-2.57000000e+02
-9.55100000e+03	-3.97000000e+02
-9.55000000e+03	-5.03000000e+02
-8.61000000e+03	-3.10000000e+02
-1.05540000e+04	7.98000000e+02
-9.41200000e+03	5.82000000e+02
-9.13000000e+03	-9.85000000e+02
-9.40500000e+03	4.78000000e+02
-9.22600000e+03	-3.82000000e+02
-9.43600000e+03	3.84000000e+02
-8.87300000e+03	7.70000000e+01
-8.78500000e+03	3.82000000e+02
-9.42100000e+03	6.00000000e+00
-9.33800000e+03	2.92000000e+02
-8.95000000e+03	-1.53000000e+02
-9.26500000e+03	-1.51000000e+02
-1.00270000e+04	2.70000000e+02
-9.12600000e+03	2.95000000e+02
-8.55000000e+03	5.05000000e+02
-9.62300000e+03	-1.30000000e+02
-9.31000000e+03	-4.05000000e+02
-8.79500000e+03	-2.94000000e+02
-9.61500000e+03	1.78000000e+02
-9.30500000e+03	5.65000000e+02
-8.93100000e+03	-6.95000000e+02
-9.62000000e+03	9.13000000e+02
-8.96900000e+03	2.55000000e+02
-8.25000000e+03	4.54000000e+02
-9.87800000e+03	-9.27000000e+02
-8.53200000e+03	1.82000000e+02
-9.76100000e+03	-8.34000000e+02
-8.70400000e+03	-7.72000000e+02
-9.58300000e+03	8.23000000e+02
-9.02700000e+03	5.56000000e+02
-9.12300000e+03	-6.88000000e+02
-9.56200000e+03	6.57000000e+02
-9.79500000e+03	-1.28000000e+02
-9.07300000e+03	1.62000000e+02
-8.60200000e+03	-5.20000000e+01
-8.53200000e+03	3.18000000e+02
-9.46600000e+03	3.19000000e+02
-9.08800000e+03	1.03000000e+02
-9.42300000e+03	-3.52000000e+02
-8.98500000e+03	7.44000000e+02
-8.05100000e+03	-4.50000000e+01
-8.76900000e+03	4.22000000e+02
-9.25500000e+03	3.44000000e+02
-9.07300000e+03	-4.60000000e+01
-9.32000000e+03	1.40000000e+01
-8.92000000e+03	4.30000000e+01
-9.13500000e+03	-2.60000000e+01
-8.99100000e+03	6.70000000e+02
-9.62100000e+03	3.75000000e+02
-9.04300000e+03	-2.26000000e+02
-9.49700000e+03	2.02000000e+02
-9.03000000e+03	-2.52000000e+02
-8.79100000e+03	1.40000000e+02
-9.28700000e+03	5.99000000e+02
-9.51900000e+03	-2.12000000e+02
-8.84300000e+03	-4.85000000e+02
-9.12300000e+03	3.80000000e+02
-1.02010000e+04	5.40000000e+01
-1.02020000e+04	-9.10000000e+01
-9.23400000e+03	-1.70000000e+01
-8.98100000e+03	3.96000000e+02
-8.96500000e+03	-2.68000000e+02
-1.06250000e+04	2.73000000e+02
-8.87200000e+03	-2.94000000e+02
-8.76900000e+03	6.60000000e+01
-8.98500000e+03	2.35000000e+02
-9.46500000e+03	-1.02000000e+02
-9.24000000e+03	6.70000000e+01
-9.05700000e+03	6.60000000e+02
-1.00340000e+04	-9.07000000e+02
-8.89600000e+03	2.72000000e+02
-9.16000000e+03	-6.25000000e+02
-9.13600000e+03	7.60000000e+01
-9.62200000e+03	-9.64000000e+02
-8.93600000e+03	-3.38000000e+02
-9.20000000e+03	4.99000000e+02
-8.87200000e+03	-2.29000000e+02
-8.88800000e+03	-3.61000000e+02
-9.10100000e+03	-8.33000000e+02
-9.33200000e+03	-3.21000000e+02
-9.04800000e+03	-2.21000000e+02
-1.00050000e+04	-2.10000000e+02
-9.51000000e+03	-6.39000000e+02
-8.84200000e+03	7.06000000e+02
-8.96100000e+03	-2.42000000e+02
-1.03740000e+04	8.40000000e+01
-9.02500000e+03	-1.50000000e+02
-9.04800000e+03	3.61000000e+02
-9.94600000e+03	9.28000000e+02
-8.72000000e+03	-1.10000000e+02
-8.83200000e+03	-9.61000000e+02
-8.96300000e+03	-1.83000000e+02
-9.05600000e+03	-1.60000000e+01
-8.81000000e+03	-3.53000000e+02
-9.34800000e+03	9.60000000e+01
-8.92600000e+03	2.27000000e+02
-9.42400000e+03	2.17000000e+02
-9.01500000e+03	2.00000000e+02
-9.45200000e+03	5.25000000e+02
-9.74500000e+03	-4.38000000e+02
-8.67700000e+03	1.80000000e+01
-8.74800000e+03	-4.06000000e+02
-9.30900000e+03	6.50000000e+01
-8.87600000e+03	2.63000000e+02
-9.27900000e+03	3.84000000e+02
-9.32300000e+03	-8.75000000e+02
-9.51000000e+03	7.30000000e+01
-8.93800000e+03	-2.34000000e+02
-9.20900000e+03	-1.07000000e+02
-9.80300000e+03	8.07000000e+02
-9.71300000e+03	-6.74000000e+02
-9.49500000e+03	-4.60000000e+02
-9.18100000e+03	3.16000000e+02
-9.30300000e+03	5.54000000e+02
-8.93200000e+03	6.80000000e+02
-9.10500000e+03	-8.94000000e+02
-9.51100000e+03	4.24000000e+02
-8.47200000e+03	-2.88000000e+02
-9.15700000e+03	-4.26000000e+02
-8.93600000e+03	1.70000000e+01
-9.29500000e+03	-6.06000000e+02
-9.62000000e+03	2.20000000e+01
-9.01300000e+03	-3.86000000e+02
-8.72800000e+03	3.40000000e+01
-9.19200000e+03	-6.10000000e+01
-8.78400000e+03	-2.41000000e+02
-8.82300000e+03	2.77000000e+02
-1.02080000e+04	-2.81000000e+02
-8.59400000e+03	-1.59000000e+02
-1.04160000e+04	3.32000000e+02
-9.37800000e+03	-9.70000000e+01
-9.82100000e+03	2.47000000e+02
-9.66000000e+03	9.50000000e+01
-9.82100000e+03	-1.51000000e+02
-8.67000000e+03	4.00000000e+00
-9.11900000e+03	-6.33000000e+02
-9.07700000e+03	4.51000000e+02
-8.38600000e+03	-1.00000000e+01
-9.39800000e+03	-3.25000000e+02
-9.43800000e+03	2.94000000e+02
-9.42300000e+03	-4.81000000e+02
-8.75900000e+03	-4.78000000e+02
-9.87200000e+03	1.21000000e+02
-9.60300000e+03	7.02000000e+02
-9.83200000e+03	1.00000000e+03
-9.11200000e+03	-2.71000000e+02
-9.29700000e+03	-1.45000000e+02
-9.35500000e+03	-2.30000000e+02
-8.99500000e+03	1.39000000e+02
-9.55200000e+03	2.84000000e+02
-9.03700000e+03	2.15000000e+02
-8.49400000e+03	-1.00000000e+02
-8.89900000e+03	1.26000000e+02
-9.28500000e+03	2.00000000e+00
-9.51400000e+03	6.18000000e+02
-8.98200000e+03	-5.93000000e+02
-8.78900000e+03	-7.50000000e+01
-9.72900000e+03	-2.50000000e+02
-9.23000000e+03	-3.00000000e+00
-9.08300000e+03	1.20000000e+02
-9.44400000e+03	5.02000000e+02
-9.17500000e+03	-5.63000000e+02
-8.52500000e+03	-8.10000000e+01
-9.44700000e+03	-2.93000000e+02
-9.36600000e+03	6.90000000e+02
-9.04900000e+03	3.15000000e+02
-9.34600000e+03	3.37000000e+02
-9.47100000e+03	-5.20000000e+01
-8.92900000e+03	3.43000000e+02
-9.38600000e+03	-4.89000000e+02
-9.08700000e+03	-2.51000000e+02
-8.49800000e+03	-1.49000000e+02
-8.69900000e+03	9.30000000e+01
-9.59600000e+03	-1.50000000e+01
-8.95800000e+03	-7.97000000e+02
-9.18300000e+03	-5.40000000e+01
-9.09600000e+03	-4.45000000e+02
-9.29400000e+03	-1.96000000e+02
-9.66100000e+03	-1.90000000e+02
-8.95900000e+03	-1.60000000e+02
-9.52200000e+03	-6.82000000e+02
-9.66000000e+03	-1.80000000e+02
-9.08300000e+03	4.52000000e+02
-9.00200000e+03	-1.91000000e+02
-1.00520000e+04	-8.95000000e+02
-8.87200000e+03	-7.84000000e+02
-8.82300000e+03	2.37000000e+02
-9.76200000e+03	1.75000000e+02
-9.69700000e+03	3.46000000e+02
-9.13500000e+03	4.77000000e+02
-8.80100000e+03	-2.38000000e+02
-9.28300000e+03	-6.23000000e+02
-8.84000000e+03	-6.21000000e+02
-9.52200000e+03	3.15000000e+02
-1.04240000e+04	-6.14000000e+02
-9.40800000e+03	3.82000000e+02
-9.11600000e+03	-1.02900000e+03
-8.93300000e+03	7.50000000e+02
-8.87100000e+03	7.45000000e+02
-8.76400000e+03	3.15000000e+02
-8.86800000e+03	1.38000000e+02
-8.56600000e+03	1.40000000e+01
-8.48700000e+03	-3.01000000e+02
-8.59700000e+03	7.00000000e+01
-8.40100000e+03	2.83000000e+02
-1.03870000e+04	-1.82000000e+02
-9.00400000e+03	-1.22000000e+02
-9.15900000e+03	-4.34000000e+02
-9.47300000e+03	-8.00000000e+01
-8.80300000e+03	-1.01000000e+02
-9.06300000e+03	-5.20000000e+01
-9.56600000e+03	-2.12000000e+02
-9.31300000e+03	2.21000000e+02
-9.21200000e+03	-1.33000000e+02
-8.83700000e+03	3.25000000e+02
-9.25800000e+03	9.60000000e+01
-9.07700000e+03	-4.86000000e+02
-8.99600000e+03	6.32000000e+02
-8.74700000e+03	6.38000000e+02
-9.61300000e+03	-1.43000000e+02
-8.59600000e+03	1.78000000e+02
-9.08500000e+03	1.60000000e+01
-8.96900000e+03	1.76000000e+02
-9.38600000e+03	-8.29000000e+02
-9.51500000e+03	-1.80000000e+01
-9.36000000e+03	9.59000000e+02
-9.18800000e+03	1.84000000e+02
-8.88900000e+03	-7.70000000e+01
-8.75500000e+03	-6.89000000e+02
-8.29000000e+03	-5.40000000e+01
-9.39000000e+03	4.82000000e+02
-8.99700000e+03	7.37000000e+02
-9.27300000e+03	-8.27000000e+02
-8.71800000e+03	-7.41000000e+02
-8.71500000e+03	5.57000000e+02
-9.58500000e+03	-2.90000000e+01
-8.82300000e+03	3.04000000e+02
-9.19500000e+03	-2.55000000e+02
-9.36800000e+03	1.42000000e+02
-1.01850000e+04	-4.83000000e+02
-9.45000000e+03	-7.30000000e+01
-8.95300000e+03	-8.59000000e+02
-9.71800000e+03	-1.11400000e+03
-9.45900000e+03	2.20000000e+01
-8.56800000e+03	8.16000000e+02
-9.44200000e+03	-2.15000000e+02
-1.00380000e+04	-2.95000000e+02
-9.09200000e+03	-3.77000000e+02
-9.55000000e+03	-2.10000000e+02
-9.55800000e+03	-8.90000000e+01
-8.59800000e+03	6.11000000e+02
-8.51700000e+03	-9.45000000e+02
-8.41500000e+03	8.43000000e+02
-9.44100000e+03	-5.70000000e+02
-8.79200000e+03	-8.94000000e+02
-9.60600000e+03	1.92000000e+02
-1.00100000e+04	-1.57000000e+02
-9.41000000e+03	-1.35000000e+02
-1.03700000e+04	-7.99000000e+02
-8.94100000e+03	8.39000000e+02
-9.06500000e+03	7.38000000e+02
-9.43000000e+03	2.36000000e+02
-9.28600000e+03	-2.10000000e+01
-9.43800000e+03	2.12000000e+02
-8.92100000e+03	-9.06000000e+02
-9.17500000e+03	-3.07000000e+02
-9.00000000e+03	-5.96000000e+02
-9.23700000e+03	-7.67000000e+02
-8.40300000e+03	-5.02000000e+02
-9.12000000e+03	5.68000000e+02
-9.07000000e+03	-9.84000000e+02
-9.29800000e+03	4.73000000e+02
-8.62600000e+03	1.49000000e+02
-9.23500000e+03	-3.45000000e+02
-8.93700000e+03	-1.50000000e+01
-9.00700000e+03	-6.30000000e+02
-1.00370000e+04	-8.92000000e+02
-8.96400000e+03	6.20000000e+02
-8.52600000e+03	5.91000000e+02
-8.86400000e+03	-7.04000000e+02
-9.60400000e+03	4.19000000e+02
-9.11500000e+03	7.65000000e+02
-9.14000000e+03	-6.59000000e+02
-9.55500000e+03	5.00000000e+00
-9.36900000e+03	1.10400000e+03
-9.21500000e+03	1.80000000e+02
-8.75100000e+03	-4.55000000e+02
-9.09100000e+03	-1.66000000e+02
-1.01720000e+04	1.49000000e+02
-8.41200000e+03	-1.84000000e+02
-9.29100000e+03	5.00000000e+00
-9.07800000e+03	5.30000000e+01
-9.56100000e+03	9.80000000e+02
-8.88500000e+03	4.91000000e+02
-8.99100000e+03	-2.71000000e+02
-9.27200000e+03	-2.65000000e+02
-8.86300000e+03	1.41000000e+02
-9.33400000e+03	5.48000000e+02
-9.44500000e+03	8.76000000e+02
-8.66100000e+03	3.83000000e+02
-8.61200000e+03	-2.51000000e+02
-9.34300000e+03	-3.00000000e+01
-9.37300000e+03	-3.36000000e+02
-9.29800000e+03	-4.07000000e+02
-8.74500000e+03	1.93000000e+02
-9.48300000e+03	5.96000000e+02
-8.95400000e+03	2.40000000e+01
-9.65100000e+03	-3.93000000e+02
-9.20700000e+03	8.40000000e+02
-9.17500000e+03	3.26000000e+02
-9.03900000e+03	-5.30000000e+01
-9.10600000e+03	5.90000000e+01
-9.59400000e+03	-2.10000000e+01
-9.24500000e+03	1.77000000e+02
-8.93700000e+03	-1.26000000e+02
-9.21900000e+03	2.67000000e+02
-9.60800000e+03	-2.99000000e+02
-9.51700000e+03	1.87000000e+02
-9.33000000e+03	-7.25000000e+02
-9.47200000e+03	1.02000000e+02
-9.33800000e+03	-8.11000000e+02
-9.50400000e+03	-5.95000000e+02
-9.00800000e+03	3.71000000e+02
-9.72500000e+03	1.78000000e+02
-9.25700000e+03	-1.36000000e+02
-9.65800000e+03	-2.46000000e+02
-9.42800000e+03	1.47000000e+02
-9.59600000e+03	4.12000000e+02
-9.18100000e+03	-5.86000000e+02
-8.86500000e+03	3.62000000e+02
-9.23800000e+03	7.70000000e+02
-8.84300000e+03	-1.29000000e+03
-9.29300000e+03	3.90000000e+02
-8.99300000e+03	-3.51000000e+02
-9.87700000e+03	-6.88000000e+02
-8.80500000e+03	7.90000000e+01
-9.51600000e+03	2.23000000e+02
-8.75100000e+03	2.40000000e+01
-9.41600000e+03	-6.54000000e+02
-9.37000000e+03	-1.47000000e+02
-9.08400000e+03	-7.84000000e+02
-9.52900000e+03	1.22000000e+02
-9.62100000e+03	5.83000000e+02
-9.30100000e+03	-8.61000000e+02
-8.97600000e+03	7.80000000e+01
-8.96300000e+03	2.56000000e+02
-8.93300000e+03	-1.34000000e+02
-8.78000000e+03	3.78000000e+02
-9.76400000e+03	4.20000000e+01
-9.31600000e+03	1.98000000e+02
-9.96500000e+03	-2.39000000e+02
-9.05300000e+03	1.04000000e+02
-9.45300000e+03	-1.34000000e+02
-9.57200000e+03	-2.89000000e+02
-9.22500000e+03	1.75000000e+02
-9.26700000e+03	2.05000000e+02
-9.32200000e+03	-4.43000000e+02
-8.39100000e+03	-4.20000000e+01
-8.48000000e+03	7.25000000e+02
-9.00800000e+03	-1.89000000e+02
-9.16100000e+03	2.34000000e+02
-9.21900000e+03	-3.02000000e+02
-9.18800000e+03	4.20000000e+01
-8.94400000e+03	3.10000000e+01
-9.82600000e+03	-7.43000000e+02
-9.04500000e+03	4.79000000e+02
-9.33600000e+03	-7.32000000e+02
-9.15100000e+03	6.56000000e+02
-8.96200000e+03	-1.65000000e+02
-9.29100000e+03	2.69000000e+02
-9.69000000e+03	-4.29000000e+02
-8.99000000e+03	-3.66000000e+02
-9.27500000e+03	2.51000000e+02
-9.63900000e+03	-1.03000000e+02
-9.41100000e+03	-6.07000000e+02
-8.12000000e+03	-1.78000000e+02
-9.17900000e+03	6.12000000e+02
-9.15000000e+03	-4.50000000e+02
-9.35600000e+03	5.34000000e+02
-8.68400000e+03	1.06000000e+02
-1.01500000e+04	2.28000000e+02
-9.11000000e+03	1.45000000e+02
-9.05600000e+03	-1.90000000e+01
-8.75900000e+03	3.04000000e+02
-9.49500000e+03	-8.04000000e+02
-9.87300000e+03	5.63000000e+02
-8.73800000e+03	2.13000000e+02
-9.68600000e+03	2.78000000e+02
-1.01380000e+04	3.26000000e+02
-9.43100000e+03	5.24000000e+02
-8.87200000e+03	3.04000000e+02
-1.04280000e+04	-2.29000000e+02
-8.86800000e+03	5.37000000e+02
-9.89500000e+03	-3.27000000e+02
-8.96100000e+03	1.85000000e+02
-9.53900000e+03	3.87000000e+02
-8.94900000e+03	-3.63000000e+02
-9.39200000e+03	2.44000000e+02
-9.30700000e+03	1.20100000e+03
-9.35400000e+03	-6.40000000e+01
-9.10400000e+03	1.23000000e+02
-9.98500000e+03	-4.45000000e+02
-9.52100000e+03	-4.57000000e+02
-8.91600000e+03	-4.82000000e+02
-9.24000000e+03	-3.04000000e+02
-8.94000000e+03	-1.13000000e+02
-9.39200000e+03	-1.20000000e+01
-9.01100000e+03	-4.20000000e+01
-8.37100000e+03	-2.12000000e+02
-9.13000000e+03	-1.91000000e+02
-9.64600000e+03	-1.18000000e+02
-8.88800000e+03	-2.49000000e+02
-9.34200000e+03	-1.45000000e+02
-9.49300000e+03	-1.85000000e+02
-9.35800000e+03	-2.87000000e+02
-8.57900000e+03	-5.00000000e+00
-8.92700000e+03	-5.04000000e+02
-8.88500000e+03	2.56000000e+02
-8.58500000e+03	9.10000000e+01
-9.10600000e+03	2.61000000e+02
-9.50800000e+03	8.90000000e+01
-9.17000000e+03	-2.83000000e+02
-9.40600000e+03	5.91000000e+02
-9.34300000e+03	-3.94000000e+02
-1.00360000e+04	-8.97000000e+02
-9.42000000e+03	1.35000000e+02
-9.35700000e+03	-1.43000000e+02
-1.07350000e+04	-5.86000000e+02
-9.48400000e+03	-1.00000000e+02
-9.53100000e+03	1.20000000e+01
-8.87400000e+03	7.01000000e+02
-9.12800000e+03	5.40000000e+01
-9.02200000e+03	4.88000000e+02
-8.89400000e+03	9.90000000e+01
-8.73400000e+03	-4.03000000e+02
-9.67500000e+03	9.70000000e+01
-9.02700000e+03	8.26000000e+02
-8.92000000e+03	-1.03000000e+03
-1.00010000e+04	-2.93000000e+02
-8.97200000e+03	3.17000000e+02
-1.01700000e+04	-3.60000000e+02
-8.87800000e+03	5.80000000e+01
-9.44200000e+03	-4.31000000e+02
-8.61600000e+03	-1.74000000e+02
-8.41800000e+03	-1.17000000e+02
-8.81100000e+03	3.45000000e+02
-9.33400000e+03	-6.25000000e+02
-9.41000000e+03	-1.43000000e+02
-8.91700000e+03	-9.00000000e+01
-9.22800000e+03	-1.69000000e+02
-9.04300000e+03	-2.00000000e+02
-9.58000000e+03	4.94000000e+02
-8.73100000e+03	1.20000000e+02
-9.48600000e+03	-7.09000000e+02
-8.88200000e+03	-3.85000000e+02
-9.42000000e+03	2.20000000e+01
-9.72600000e+03	3.20000000e+01
-8.92400000e+03	3.41000000e+02
-9.17500000e+03	3.30000000e+01
-1.00120000e+04	2.90000000e+01
-8.91700000e+03	-1.05000000e+02
-9.59000000e+03	7.12000000e+02
-8.87900000e+03	2.06000000e+02
-8.54100000e+03	4.90000000e+02
-9.47600000e+03	8.30000000e+01
-9.58500000e+03	5.05000000e+02
-9.37500000e+03	-1.99000000e+02
-9.34600000e+03	-2.50000000e+02
-9.72800000e+03	-3.49000000e+02
-8.64900000e+03	1.50000000e+02
-9.27100000e+03	-1.24000000e+02
-8.82000000e+03	-7.07000000e+02
-8.62200000e+03	2.79000000e+02
-9.67800000e+03	4.00000000e+02
-9.08000000e+03	2.36000000e+02
-9.20700000e+03	-1.99000000e+02
-9.01200000e+03	-8.49000000e+02
-9.00500000e+03	1.00000000e+00
-9.70000000e+03	-4.70000000e+01
-8.60500000e+03	1.99000000e+02
-9.80100000e+03	-3.18000000e+02
-9.53500000e+03	-2.75000000e+02
-9.62200000e+03	-5.45000000e+02
-9.76000000e+03	2.41000000e+02
-8.97500000e+03	-2.32000000e+02
-9.33700000e+03	-3.31000000e+02
-9.05600000e+03	4.18000000e+02
-8.78800000e+03	3.68000000e+02
-9.61000000e+03	-5.34000000e+02
-9.07900000e+03	-3.20000000e+01
-9.18100000e+03	-1.25000000e+02
-8.89000000e+03	1.50000000e+01
-8.60700000e+03	5.03000000e+02
-8.79700000e+03	8.00000000e+00
-9.16900000e+03	-3.10000000e+01
-8.84900000e+03	-1.28000000e+02
-9.56500000e+03	-4.86000000e+02
-8.92000000e+03	1.34000000e+02
-9.06300000e+03	4.90000000e+02
-9.49500000e+03	2.58000000e+02
-9.32000000e+03	-4.88000000e+02
-8.53300000e+03	-1.84000000e+02
-9.36000000e+03	3.50000000e+02
-9.25100000e+03	8.10000000e+01
-9.22400000e+03	-5.30000000e+01
-9.39000000e+03	-1.25000000e+02
-9.98800000e+03	4.35000000e+02
-8.84100000e+03	-2.10000000e+01
-7.87500000e+03	8.33000000e+02
-9.55600000e+03	-6.94000000e+02
-9.63200000e+03	4.75000000e+02
-9.20400000e+03	-8.80000000e+01
-8.88500000e+03	5.70000000e+01
-9.09300000e+03	1.00000000e+02
-9.24500000e+03	5.32000000e+02
-9.00200000e+03	5.51000000e+02
-9.37000000e+03	-7.86000000e+02
-9.52000000e+03	-3.68000000e+02
-9.41200000e+03	-5.30000000e+01
-8.98900000e+03	-3.06000000e+02
-9.07800000e+03	3.34000000e+02
-1.00550000e+04	-6.53000000e+02
-9.70800000e+03	-1.00000000e+01
-8.99600000e+03	2.70000000e+02
-9.75400000e+03	-2.04000000e+02
-9.90400000e+03	-7.33000000e+02
-9.50600000e+03	-1.34000000e+02
-8.34100000e+03	-4.18000000e+02
-9.64800000e+03	2.51000000e+02
-8.83800000e+03	9.80000000e+01
-9.83600000e+03	-2.80000000e+01
-9.01100000e+03	-1.01000000e+02
-9.41300000e+03	-5.32000000e+02
-8.74500000e+03	8.50000000e+01
-9.83700000e+03	-3.53000000e+02
-9.71900000e+03	3.29000000e+02
-9.39700000e+03	-3.48000000e+02
-9.38800000e+03	6.76000000e+02
-9.54900000e+03	-5.40000000e+01
-9.70500000e+03	7.00000000e+01
-9.45400000e+03	-3.40000000e+02
-9.02900000e+03	-4.30000000e+01
-9.75900000e+03	7.20000000e+01
-8.29300000e+03	1.84000000e+02
-9.69000000e+03	-3.39000000e+02
-8.76700000e+03	1.12000000e+02
-1.01510000e+04	5.65000000e+02
-1.00020000e+04	5.98000000e+02
-9.69500000e+03	-1.63000000e+02
-9.54300000e+03	-5.10000000e+02
-8.67900000e+03	-8.40000000e+01
-9.28200000e+03	1.68000000e+02
-9.32100000e+03	3.60000000e+01
-9.63300000e+03	-1.16000000e+02
-9.29100000e+03	-8.00000000e+01
-1.00160000e+04	7.80000000e+01
-8.78700000e+03	-1.95000000e+02
-9.93400000e+03	-4.18000000e+02
-9.36000000e+03	4.45000000e+02
-8.20200000e+03	-3.30000000e+01
-9.92600000e+03	5.50000000e+01
-9.95300000e+03	3.57000000e+02
-1.02950000e+04	-7.08000000e+02
-9.29300000e+03	5.33000000e+02
-8.92700000e+03	-1.50000000e+01
-9.10100000e+03	5.76000000e+02
-9.97400000e+03	4.85000000e+02
-9.94100000e+03	4.16000000e+02
-9.26000000e+03	5.29000000e+02
-9.25000000e+03	-2.40000000e+01
-9.03800000e+03	-7.04000000e+02
-9.29700000e+03	-9.10000000e+01
-8.77000000e+03	1.50000000e+01
-9.34800000e+03	9.63000000e+02
-9.70800000e+03	-7.40000000e+01
-9.93900000e+03	3.25000000e+02
-8.79400000e+03	-2.17000000e+02
-8.89300000e+03	5.20000000e+02
-9.94500000e+03	7.50000000e+01
-9.43200000e+03	8.63000000e+02
-9.12200000e+03	5.10000000e+02
-9.27500000e+03	7.32000000e+02
-8.85100000e+03	9.80000000e+01
-9.42900000e+03	-2.59000000e+02
-9.58200000e+03	-2.49000000e+02
-9.44400000e+03	6.58000000e+02
-9.63000000e+03	1.11000000e+02
-9.16000000e+03	4.50000000e+02
-8.62400000e+03	-2.50000000e+01
-9.23700000e+03	-2.21000000e+02
-8.94000000e+03	5.28000000e+02
-9.88400000e+03	-2.36000000e+02
-9.44300000e+03	-6.19000000e+02
-9.20700000e+03	-3.80000000e+01
-9.10200000e+03	-6.10000000e+01
-8.90900000e+03	1.69000000e+02
-9.14200000e+03	1.31000000e+02
-9.44800000e+03	4.74000000e+02
-9.66300000e+03	1.32000000e+02
-9.34500000e+03	-4.49000000e+02
-9.36100000e+03	2.76000000e+02
-9.40200000e+03	1.71000000e+02
-9.60700000e+03	-6.92000000e+02
-8.93500000e+03	-3.29000000e+02
-9.20900000e+03	1.05900000e+03
-8.34800000e+03	-8.90000000e+01
-9.22300000e+03	-4.86000000e+02
-9.72700000e+03	-1.59000000e+02
-8.97300000e+03	2.86000000e+02
-8.97000000e+03	-3.47000000e+02
-9.15300000e+03	-1.66000000e+02
-9.02700000e+03	-4.20000000e+01
-9.14600000e+03	5.23000000e+02
-9.23400000e+03	1.28000000e+02
-9.09900000e+03	-3.27000000e+02
-9.52700000e+03	-1.30000000e+01
-9.46500000e+03	-5.57000000e+02
-9.24200000e+03	5.80000000e+02
-8.71900000e+03	1.35000000e+02
-9.54100000e+03	-1.52000000e+02
-9.17500000e+03	-5.20000000e+01
-9.14400000e+03	-3.15000000e+02
-8.44800000e+03	1.90000000e+02
-9.50500000e+03	-3.70000000e+01
-7.76600000e+03	-2.30000000e+02
-9.37200000e+03	-4.07000000e+02
-8.74100000e+03	1.80000000e+01
-8.38400000e+03	5.58000000e+02
-8.74700000e+03	-2.02000000e+02
-9.43900000e+03	-3.16000000e+02
-9.39600000e+03	1.26000000e+02
-9.48000000e+03	-4.77000000e+02
-9.74000000e+03	-5.94000000e+02
-8.53500000e+03	-8.70000000e+01
-9.52300000e+03	7.22000000e+02
-8.97900000e+03	-2.90000000e+02
-8.97200000e+03	-2.33000000e+02
-8.95000000e+03	-1.03000000e+02
-1.01690000e+04	-6.29000000e+02
-9.04400000e+03	7.04000000e+02
-9.69200000e+03	2.20000000e+02
-8.65100000e+03	-2.07000000e+02
-8.91900000e+03	-5.90000000e+02
-9.61100000e+03	-8.00000000e+00
-9.52900000e+03	-9.60000000e+01
-9.41200000e+03	3.79000000e+02
-9.73800000e+03	-5.37000000e+02
-9.50300000e+03	-2.80000000e+01
-8.72600000e+03	-4.88000000e+02
-8.30800000e+03	2.54000000e+02
-9.21400000e+03	2.40000000e+01
-8.53200000e+03	-3.70000000e+01
-9.49800000e+03	8.00000000e+00
-8.84100000e+03	1.27000000e+02
-9.68500000e+03	-4.68000000e+02
-8.99000000e+03	-2.12000000e+02
-9.42600000e+03	-2.41000000e+02
-9.58300000e+03	-2.31000000e+02
-9.25400000e+03	-1.32000000e+02
-8.82500000e+03	-4.50000000e+02
-1.01050000e+04	4.11000000e+02
-9.41500000e+03	-7.03000000e+02
-1.00660000e+04	-3.81000000e+02
-9.09500000e+03	-4.72000000e+02
-1.02430000e+04	1.51000000e+02
-9.88900000e+03	-6.56000000e+02
-8.82100000e+03	9.63000000e+02
-8.55500000e+03	3.42000000e+02
-1.10410000e+04	-3.29000000e+02
-8.22900000e+03	1.33000000e+02
-8.95100000e+03	-1.14000000e+02
-9.83400000e+03	3.33000000e+02
-9.14900000e+03	7.90000000e+02
-9.12100000e+03	7.00000000e+00
-9.95600000e+03	3.39000000e+02
-9.40100000e+03	4.42000000e+02
-8.86400000e+03	1.77000000e+02
-9.85000000e+03	-6.20000000e+01
-9.42200000e+03	-1.80000000e+02
-9.55700000e+03	-1.05000000e+02
-8.72200000e+03	2.03000000e+02
-9.04300000e+03	-1.71000000e+02
-8.62300000e+03	2.80000000e+02
-9.51200000e+03	-4.03000000e+02
-9.21900000e+03	5.50000000e+02
-9.26200000e+03	3.33000000e+02
-9.80100000e+03	1.39000000e+02
-8.83400000e+03	4.22000000e+02
-9.11600000e+03	-1.17000000e+02
-9.00600000e+03	5.81000000e+02
-8.27500000e+03	-1.61000000e+02
-9.55700000e+03	-5.35000000e+02
-8.53000000e+03	2.56000000e+02
-8.57700000e+03	4.87000000e+02
-9.03900000e+03	2.10000000e+01
-8.90800000e+03	-2.75000000e+02
-1.00190000e+04	-1.21000000e+02
-9.90200000e+03	-3.07000000e+02
-8.55300000e+03	1.85000000e+02
-8.80600000e+03	-1.94000000e+02
-9.75900000e+03	-2.31000000e+02
-9.47200000e+03	-3.71000000e+02
-9.09200000e+03	1.49000000e+02
-9.13100000e+03	-8.73000000e+02
-9.79700000e+03	3.23000000e+02
-8.21500000e+03	-2.64000000e+02
-9.30700000e+03	-1.02000000e+03
-8.65300000e+03	9.67000000e+02
-9.61800000e+03	-4.04000000e+02
-9.28600000e+03	2.56000000e+02
-9.02000000e+03	-5.37000000e+02
-9.92000000e+03	8.04000000e+02
-9.86700000e+03	3.89000000e+02
-9.02700000e+03	-1.70000000e+01
-9.20000000e+03	1.50000000e+01
-9.50000000e+03	9.06000000e+02
-8.84400000e+03	-6.12000000e+02
-8.73000000e+03	3.98000000e+02
-9.90600000e+03	1.37000000e+02
-8.75900000e+03	-8.80000000e+01
-9.05700000e+03	-3.90000000e+01
-9.71500000e+03	-1.76000000e+02
-8.63500000e+03	5.26000000e+02
-8.51000000e+03	-3.78000000e+02
-9.94600000e+03	1.13000000e+02
-8.06700000e+03	1.94000000e+02
-9.08300000e+03	3.40000000e+02
-9.31900000e+03	6.78000000e+02
-9.44800000e+03	3.10000000e+02
-8.87200000e+03	5.92000000e+02
-9.00700000e+03	-8.10000000e+01
-9.10000000e+03	1.98000000e+02
-9.48200000e+03	4.59000000e+02
-8.80500000e+03	-6.60000000e+02
-9.44300000e+03	-3.10000000e+01
-8.88300000e+03	-2.20000000e+02
-8.66500000e+03	-6.75000000e+02
-8.75100000e+03	-1.01000000e+02
-8.70900000e+03	3.19000000e+02
-9.70500000e+03	-2.66000000e+02
-8.51400000e+03	-3.05000000e+02
-9.61800000e+03	1.11000000e+03
-9.18100000e+03	1.61000000e+02
-9.29100000e+03	8.00000000e+00
-9.88400000e+03	1.31800000e+03
-8.78200000e+03	-5.10000000e+02
-8.90300000e+03	5.29000000e+02
-9.44800000e+03	-3.56000000e+02
-8.77300000e+03	3.70000000e+01
-8.92600000e+03	8.04000000e+02
-9.16400000e+03	-6.69000000e+02
-9.13800000e+03	2.26000000e+02
-8.88900000e+03	-3.72000000e+02
-8.95200000e+03	-5.36000000e+02
-9.61500000e+03	-9.86000000e+02
-8.91000000e+03	-2.30000000e+01
-9.33400000e+03	-8.06000000e+02
-8.70900000e+03	2.61000000e+02
-9.59500000e+03	-2.78000000e+02
-8.91300000e+03	-2.64000000e+02
-9.03600000e+03	-1.80000000e+02
-9.96000000e+03	3.62000000e+02
-8.92900000e+03	-4.88000000e+02
-9.79500000e+03	-1.23200000e+03
-8.84800000e+03	-3.12000000e+02
-9.65700000e+03	-2.05000000e+02
-8.96500000e+03	-7.94000000e+02
-8.71300000e+03	5.60000000e+01
-9.58000000e+03	5.42000000e+02
-9.80600000e+03	4.46000000e+02
-9.58900000e+03	2.10000000e+02
-8.92800000e+03	2.72000000e+02
-8.61900000e+03	-2.90000000e+02
-9.93600000e+03	-9.87000000e+02
-9.02700000e+03	-2.55000000e+02
-9.20600000e+03	1.48000000e+02
-1.01010000e+04	3.27000000e+02
-8.46900000e+03	-3.41000000e+02
-9.20600000e+03	5.33000000e+02
-9.85300000e+03	-1.81500000e+03
-9.38500000e+03	5.58000000e+02
-9.03600000e+03	-1.26000000e+02
-8.92400000e+03	-1.14000000e+02
-9.17600000e+03	7.20000000e+01
-9.12900000e+03	3.78000000e+02
-8.36800000e+03	-6.55000000e+02
-8.68800000e+03	3.60000000e+01
-8.78500000e+03	-7.87000000e+02
-9.83600000e+03	3.45000000e+02
-9.66700000e+03	-4.79000000e+02
-9.04200000e+03	3.32000000e+02
-9.43400000e+03	2.89000000e+02
-9.15600000e+03	-3.03000000e+02
-8.88700000e+03	1.14000000e+02
-9.52600000e+03	-3.16000000e+02
-9.35100000e+03	-3.91000000e+02
-9.77400000e+03	2.90000000e+01
-9.57500000e+03	-3.20000000e+02
-9.67200000e+03	8.30000000e+01
-9.08600000e+03	-1.02000000e+02
-9.08700000e+03	7.20000000e+01
-9.42800000e+03	1.29000000e+02
-8.63900000e+03	4.00000000e+01
-9.48000000e+03	-3.57000000e+02
-8.42500000e+03	4.88000000e+02
-8.88400000e+03	-2.53000000e+02
-8.37900000e+03	5.20000000e+01
-8.57800000e+03	2.57000000e+02
-9.29400000e+03	4.14000000e+02
-1.00100000e+04	-2.87000000e+02
-9.35200000e+03	-8.44000000e+02
-9.97100000e+03	-8.10000000e+02
-8.11800000e+03	6.64000000e+02
-8.96600000e+03	-7.10000000e+02
-1.09380000e+04	-1.32000000e+02
-8.82700000e+03	-5.31000000e+02
-9.28000000e+03	3.88000000e+02
-9.08300000e+03	1.10000000e+02
-9.56000000e+03	-3.10000000e+01
-9.27100000e+03	2.68000000e+02
-9.56500000e+03	1.88000000e+02
-9.27000000e+03	-7.21000000e+02
-9.04300000e+03	-6.01000000e+02
-9.56900000e+03	-2.00000000e+01
-9.15200000e+03	2.20000000e+01
-9.28600000e+03	-1.43000000e+02
-9.74000000e+03	7.60000000e+01
-8.93500000e+03	1.10000000e+02
-9.14700000e+03	-1.81000000e+02
-9.53600000e+03	5.78000000e+02
-1.00830000e+04	-1.70000000e+02
-8.43400000e+03	-4.28000000e+02
-9.64800000e+03	-2.22000000e+02
-9.94400000e+03	-2.60000000e+01
-9.12300000e+03	3.89000000e+02
-8.68200000e+03	4.20000000e+01
-8.44100000e+03	3.15000000e+02
-9.75200000e+03	-3.74000000e+02
-9.77900000e+03	-3.18000000e+02
-9.02400000e+03	-2.53000000e+02
-9.31400000e+03	-5.80000000e+02
-8.97700000e+03	4.93000000e+02
-9.93500000e+03	-7.30000000e+02
-8.97300000e+03	5.90000000e+01
-9.45000000e+03	-4.11000000e+02
-9.61900000e+03	3.10000000e+01
-8.64200000e+03	8.60000000e+01
-9.98700000e+03	-2.74000000e+02
-9.14600000e+03	-2.70000000e+01
-9.50000000e+03	-6.91000000e+02
-9.56500000e+03	-5.51000000e+02
-8.49300000e+03	4.60000000e+02
-9.34000000e+03	7.70000000e+01
-9.58300000e+03	-2.41000000e+02
-1.01820000e+04	-7.24000000e+02
-8.81100000e+03	-5.94000000e+02
-9.92300000e+03	2.40000000e+02
-9.96500000e+03	2.87000000e+02
-9.23000000e+03	-9.21000000e+02
-9.24500000e+03	-2.60000000e+02
-8.89200000e+03	1.70000000e+02
-9.71200000e+03	3.20000000e+02
-8.91700000e+03	1.26000000e+02
-9.32200000e+03	-5.76000000e+02
-1.00410000e+04	7.00000000e+00
-9.16100000e+03	-8.96000000e+02
-8.62200000e+03	-5.13000000e+02
-8.81300000e+03	-1.24000000e+02
-9.58100000e+03	3.63000000e+02
-9.02100000e+03	-4.29000000e+02
-8.98700000e+03	-6.01000000e+02
-8.94800000e+03	-7.30000000e+01
-8.68300000e+03	3.29000000e+02
-8.96800000e+03	-6.18000000e+02
-9.47500000e+03	1.40000000e+02
-8.93600000e+03	8.10000000e+02
-9.44700000e+03	1.72000000e+02
-8.70400000e+03	-4.99000000e+02
-9.66800000e+03	3.97000000e+02
-9.46500000e+03	5.70000000e+01
-8.94800000e+03	-3.82000000e+02
-9.88600000e+03	5.29000000e+02
-8.90200000e+03	7.95000000e+02
-9.51600000e+03	-9.70000000e+01
-8.95400000e+03	-8.20000000e+01
-9.05800000e+03	3.21000000e+02
-9.15400000e+03	4.00000000e+01
-9.85400000e+03	1.75000000e+02
-9.46900000e+03	1.00000000e+01
-8.87300000e+03	-8.91000000e+02
-9.06700000e+03	1.45000000e+02
-8.92500000e+03	2.60000000e+01
-8.78900000e+03	1.91000000e+02
-9.31900000e+03	-2.21000000e+02
-9.22900000e+03	1.12000000e+02
-8.68300000e+03	-3.08000000e+02
-8.91100000e+03	2.65000000e+02
-9.68200000e+03	2.49000000e+02
-9.15200000e+03	8.70000000e+01
-9.66600000e+03	3.95000000e+02
-9.26600000e+03	1.42000000e+02
-9.60100000e+03	6.67000000e+02
-9.45500000e+03	5.30000000e+02
-9.88000000e+03	-5.40000000e+01
-8.91500000e+03	1.58000000e+02
-8.47700000e+03	-9.70000000e+01
-9.75900000e+03	1.81000000e+02
-8.41000000e+03	-1.80000000e+02
-1.03940000e+04	2.21000000e+02
-8.51800000e+03	-2.98000000e+02
-8.85800000e+03	-4.46000000e+02
-9.19300000e+03	3.68000000e+02
-9.20500000e+03	-6.46000000e+02
-8.92800000e+03	1.00000000e+00
-9.38000000e+03	4.67000000e+02
-9.60200000e+03	4.01000000e+02
-9.14400000e+03	-7.00000000e+01
-9.26300000e+03	-3.94000000e+02
-9.34400000e+03	-1.08000000e+02
-1.05060000e+04	-3.87000000e+02
-9.64400000e+03	1.09000000e+02
-9.20700000e+03	-1.25000000e+02
-9.19600000e+03	-3.18000000e+02
-9.46200000e+03	1.53000000e+02
-9.58300000e+03	2.17000000e+02
-9.22000000e+03	1.97000000e+02
-9.66900000e+03	4.12000000e+02
-9.57700000e+03	-1.88000000e+02
-9.07700000e+03	-6.24000000e+02
-9.94600000e+03	1.02000000e+02
-8.99300000e+03	2.49000000e+02
-8.63100000e+03	2.99000000e+02
-9.15600000e+03	-2.21000000e+02
-9.74100000e+03	3.08000000e+02
-9.51500000e+03	1.61000000e+02
-9.45100000e+03	3.91000000e+02
-8.89100000e+03	1.74000000e+02
-8.60200000e+03	3.64000000e+02
-9.58900000e+03	-3.90000000e+02
-9.32200000e+03	-4.80000000e+01
-9.43400000e+03	-3.16000000e+02
-9.32500000e+03	4.46000000e+02
-9.44000000e+03	-3.29000000e+02
-9.03700000e+03	-1.09000000e+02
-9.17600000e+03	-4.72000000e+02
-9.77900000e+03	-5.60000000e+01
-9.55000000e+03	3.34000000e+02
-8.79300000e+03	-3.22000000e+02
-9.31000000e+03	3.44000000e+02
-8.39900000e+03	-2.03000000e+02
-8.82700000e+03	-5.90000000e+01
-9.22500000e+03	2.36000000e+02
-9.11800000e+03	3.86000000e+02
-9.13500000e+03	-1.01500000e+03
-9.26000000e+03	2.01000000e+02
-1.01320000e+04	4.70000000e+01
-9.12600000e+03	1.06000000e+02
-8.54900000e+03	-2.18000000e+02
-9.55600000e+03	-6.27000000e+02
-8.82400000e+03	-7.82000000e+02
-9.29400000e+03	-1.76000000e+02
-9.34500000e+03	-1.31000000e+02
-9.01700000e+03	-3.38000000e+02
-8.97200000e+03	3.36000000e+02
-8.72500000e+03	4.50000000e+01
-9.32900000e+03	-3.60000000e+01
-8.68100000e+03	-4.21000000e+02
-9.16100000e+03	-2.92000000e+02
-8.98200000e+03	-8.81000000e+02
-8.75500000e+03	7.61000000e+02
-8.79900000e+03	8.00000000e+00
-9.55000000e+03	4.00000000e+01
-9.52900000e+03	-5.10000000e+01
-8.67800000e+03	5.98000000e+02
-9.38800000e+03	4.76000000e+02
-9.19900000e+03	-1.56000000e+02
-9.31600000e+03	-1.81000000e+02
-8.65900000e+03	1.03300000e+03
-9.06200000e+03	-3.61000000e+02
-8.49900000e+03	-2.25000000e+02
-9.45200000e+03	-2.64000000e+02
-9.63000000e+03	7.00000000e+01
-9.22200000e+03	5.00000000e+01
-8.96900000e+03	2.75000000e+02
-9.78700000e+03	1.26000000e+02
-8.75500000e+03	6.80000000e+02
-8.87100000e+03	-6.61000000e+02
-9.10100000e+03	2.50000000e+02
-9.34500000e+03	2.27000000e+02
-9.58200000e+03	-2.47000000e+02
-9.00800000e+03	2.61000000e+02
-8.78500000e+03	-6.35000000e+02
-8.76800000e+03	3.88000000e+02
-9.42100000e+03	-2.28000000e+02
-9.46800000e+03	-3.90000000e+02
-9.65900000e+03	1.10400000e+03
-9.56300000e+03	-5.66000000e+02
-8.97700000e+03	-2.14000000e+02
-8.89300000e+03	5.33000000e+02
-9.32300000e+03	-8.50000000e+01
-8.98500000e+03	3.81000000e+02
-9.12800000e+03	5.28000000e+02
-8.63800000e+03	-7.36000000e+02
-9.15600000e+03	-4.31000000e+02
-9.17800000e+03	-2.18000000e+02
-9.07200000e+03	2.50000000e+01
-9.32200000e+03	-6.00000000e+00
-9.25600000e+03	-5.40000000e+01
-9.41900000e+03	-2.16000000e+02
-9.34800000e+03	-1.10000000e+01
-9.34700000e+03	-5.90000000e+01
-8.35700000e+03	-6.55000000e+02
-9.04000000e+03	6.01000000e+02
-9.53400000e+03	6.40000000e+02
-9.34400000e+03	-2.40000000e+02
-9.75800000e+03	-1.54000000e+02
-9.35700000e+03	2.40000000e+02
-9.16900000e+03	-6.30000000e+01
-8.87800000e+03	1.00000000e+02
-9.55500000e+03	-1.93000000e+02
-9.13300000e+03	5.98000000e+02
-9.74200000e+03	2.42000000e+02
-8.94200000e+03	-8.00000000e+02
-9.22900000e+03	7.98000000e+02
-9.32200000e+03	2.64000000e+02
-8.90400000e+03	-2.20000000e+02
-9.28500000e+03	9.11000000e+02
-8.16000000e+03	-3.49000000e+02
-9.81600000e+03	1.87000000e+02
-8.85500000e+03	-3.00000000e+01
-9.00000000e+03	3.54000000e+02
-9.04500000e+03	-1.29000000e+02
-9.77400000e+03	-7.50000000e+01
-9.17300000e+03	-3.53000000e+02
-9.18700000e+03	4.00000000e+00
-8.27900000e+03	-2.39000000e+02
-1.01340000e+04	2.46000000e+02
-9.47200000e+03	3.69000000e+02
-9.23100000e+03	3.28000000e+02
-9.58800000e+03	1.17000000e+02
-9.89700000e+03	3.39000000e+02
-8.45200000e+03	-6.90000000e+01
-9.10400000e+03	1.15000000e+02
-9.21700000e+03	4.65000000e+02
-9.29000000e+03	-1.65000000e+02
-9.95000000e+03	1.54000000e+02
-9.07700000e+03	6.38000000e+02
-9.87500000e+03	-5.53000000e+02
-8.91500000e+03	-7.00000000e+00
-9.03700000e+03	1.16000000e+02
-8.66600000e+03	7.32000000e+02
-9.69300000e+03	-2.61000000e+02
-9.36800000e+03	-2.08000000e+02
-9.80700000e+03	6.49000000e+02
-9.39500000e+03	2.37000000e+02
-9.43200000e+03	-4.45000000e+02
-8.76000000e+03	-3.56000000e+02
-9.68500000e+03	8.10000000e+01
-9.90300000e+03	-1.03500000e+03
-8.91100000e+03	-7.25000000e+02
-9.04700000e+03	3.70000000e+01
-9.30200000e+03	-3.87000000e+02
-1.00320000e+04	-5.59000000e+02
-8.99100000e+03	-3.99000000e+02
-8.57500000e+03	-6.61000000e+02
-9.41400000e+03	4.56000000e+02
-9.46800000e+03	-3.73000000e+02
-9.12200000e+03	6.70000000e+01
-9.35400000e+03	5.50000000e+01
-9.13700000e+03	-1.35000000e+02
-9.16100000e+03	2.37000000e+02
-9.12300000e+03	7.93000000e+02
-8.76200000e+03	1.08000000e+02
-9.13600000e+03	5.46000000e+02
-9.45800000e+03	3.14000000e+02
-8.55600000e+03	3.67000000e+02
-8.66800000e+03	3.72000000e+02
-9.58200000e+03	-1.16900000e+03
-9.68100000e+03	-5.96000000e+02
-8.88100000e+03	-3.23000000e+02
-9.86400000e+03	2.42000000e+02
-9.51100000e+03	2.82000000e+02
-9.46100000e+03	-2.67000000e+02
-9.12800000e+03	-3.68000000e+02
-8.82900000e+03	5.32000000e+02
-9.24200000e+03	-6.17000000e+02
-8.59800000e+03	-7.31000000e+02
-9.83400000e+03	-4.30000000e+02
-8.43500000e+03	-4.38000000e+02
-9.17000000e+03	6.17000000e+02
-1.02000000e+04	-1.45000000e+02
-9.26400000e+03	-2.63000000e+02
-9.48700000e+03	-3.18000000e+02
-9.16000000e+03	-1.13000000e+02
-8.91300000e+03	1.06600000e+03
-9.53600000e+03	3.30000000e+01
-9.02400000e+03	7.00000000e+01
-9.19700000e+03	1.71000000e+02
-9.55000000e+03	-4.48000000e+02
-9.35300000e+03	5.69000000e+02
-9.04700000e+03	-4.21000000e+02
-9.28100000e+03	-1.32000000e+02
-9.18700000e+03	-1.43000000e+02
-9.46400000e+03	4.52000000e+02
-9.74200000e+03	-9.61000000e+02
-8.81600000e+03	-1.48000000e+02
-8.79900000e+03	-3.84000000e+02
-9.71200000e+03	-6.14000000e+02
-1.03000000e+04	4.10000000e+02
-8.90800000e+03	1.59000000e+02
-9.61300000e+03	7.75000000e+02
-9.43900000e+03	4.00000000e+00
-9.40300000e+03	5.50000000e+01
-9.41500000e+03	9.60000000e+01
-9.52500000e+03	3.34000000e+02
-8.90700000e+03	-5.40000000e+01
-1.00410000e+04	-4.18000000e+02
-8.75300000e+03	1.68000000e+02
-8.92900000e+03	-7.04000000e+02
-8.96800000e+03	1.64000000e+02
-9.04400000e+03	1.04800000e+03
-9.50300000e+03	-8.55000000e+02
-8.72500000e+03	1.45000000e+02
-8.78300000e+03	-7.59000000e+02
-8.87500000e+03	3.50000000e+01
-8.02500000e+03	-2.38000000e+02
-9.36000000e+03	4.16000000e+02
-9.16800000e+03	-5.62000000e+02
-8.89100000e+03	3.96000000e+02
-1.04260000e+04	-4.91000000e+02
-9.26100000e+03	-8.64000000e+02
-9.59000000e+03	4.47000000e+02
-9.32600000e+03	1.17000000e+02
-8.71400000e+03	-3.56000000e+02
-8.60600000e+03	-3.02000000e+02
-9.72400000e+03	-5.43000000e+02
-9.13300000e+03	3.60000000e+01
-9.35000000e+03	1.53000000e+02
-9.17200000e+03	-4.38000000e+02
-9.27700000e+03	-1.44000000e+02
-9.11500000e+03	1.02000000e+02
-9.57300000e+03	-1.15000000e+02
-9.25800000e+03	-3.63000000e+02
-8.95400000e+03	1.41000000e+02
-9.01900000e+03	8.00000000e+01
-9.68500000e+03	1.21000000e+02
-8.12400000e+03	1.81000000e+02
-9.38300000e+03	-8.60000000e+01
-9.66000000e+03	-3.04000000e+02
-9.13800000e+03	-1.44000000e+02
-9.30200000e+03	-1.22000000e+02
-9.55000000e+03	-1.65000000e+02
-9.36300000e+03	-2.39000000e+02
-8.83200000e+03	-1.00000000e+00
-8.97300000e+03	-1.48000000e+02
-9.64400000e+03	4.48000000e+02
-9.09500000e+03	-1.69000000e+02
-9.28900000e+03	-5.78000000e+02
-9.38300000e+03	-2.20000000e+01
-8.41700000e+03	-1.69000000e+02
-9.28200000e+03	2.27000000e+02
-9.34400000e+03	1.14900000e+03
-8.84500000e+03	-2.56000000e+02
-9.83500000e+03	5.72000000e+02
-1.00240000e+04	4.91000000e+02
-8.98000000e+03	1.82000000e+02
-8.94300000e+03	-6.45000000e+02
-9.28300000e+03	1.04000000e+03
-9.30800000e+03	-7.61000000e+02
-8.92100000e+03	-7.73000000e+02
-8.77300000e+03	7.10000000e+01
-9.38500000e+03	2.07000000e+02
-9.02900000e+03	-1.40000000e+01
-9.27000000e+03	2.49000000e+02
-8.60400000e+03	6.08000000e+02
-8.81000000e+03	4.73000000e+02
-9.43400000e+03	3.40000000e+01
-8.84700000e+03	1.00000000e+01
-8.95500000e+03	-6.50000000e+02
-9.68200000e+03	-1.98000000e+02
-8.56800000e+03	-7.68000000e+02
-9.21000000e+03	8.33000000e+02
-9.17400000e+03	-7.26000000e+02
-9.22300000e+03	-1.31000000e+02
-9.40500000e+03	3.31000000e+02
-9.43400000e+03	5.56000000e+02
-9.82800000e+03	4.05000000e+02
-1.00570000e+04	-3.59000000e+02
-9.56100000e+03	-7.28000000e+02
-9.62700000e+03	3.86000000e+02
-8.72800000e+03	-5.90000000e+02
-9.43100000e+03	-4.44000000e+02
-8.81700000e+03	1.96000000e+02
-9.99800000e+03	9.49000000e+02
-9.56100000e+03	-2.90000000e+01
-9.69100000e+03	-1.29000000e+02
-9.17400000e+03	-5.07000000e+02
-8.92500000e+03	6.35000000e+02
-9.23500000e+03	-5.22000000e+02
-8.97600000e+03	-6.87000000e+02
-1.04410000e+04	3.88000000e+02
-9.19700000e+03	7.80000000e+01
-1.01660000e+04	-1.50000000e+01
-9.60200000e+03	7.85000000e+02
-9.50500000e+03	-4.96000000e+02
-8.75600000e+03	1.77000000e+02
-9.84200000e+03	2.00000000e+01
-9.40000000e+03	-4.08000000e+02
-8.57000000e+03	1.90000000e+01
-9.08300000e+03	6.03000000e+02
-9.19300000e+03	-3.29000000e+02
-9.40100000e+03	-1.36200000e+03
-9.37700000e+03	2.22000000e+02
-9.58800000e+03	-2.20000000e+01
-8.64700000e+03	-3.90000000e+01
-9.44800000e+03	1.46000000e+02
-9.27700000e+03	-2.70000000e+02
-9.10300000e+03	-1.28000000e+02
-9.51200000e+03	5.08000000e+02
-9.54100000e+03	-2.15000000e+02
-9.08900000e+03	3.30000000e+01
-9.87900000e+03	-5.42000000e+02
-8.92700000e+03	1.45800000e+03
-8.69900000e+03	-8.24000000e+02
-9.34100000e+03	6.26000000e+02
-1.00220000e+04	-3.54000000e+02
-8.96200000e+03	-1.31000000e+02
-9.17200000e+03	-3.32000000e+02
-8.74000000e+03	-5.50000000e+02
-8.55700000e+03	6.87000000e+02
-9.05600000e+03	-7.80000000e+01
-9.03800000e+03	3.70000000e+01
-8.91200000e+03	2.74000000e+02
-8.90000000e+03	3.00000000e+00
-9.61200000e+03	1.15200000e+03
-9.69900000e+03	2.59000000e+02
-8.92000000e+03	-1.12000000e+02
-9.30000000e+03	4.64000000e+02
-9.02100000e+03	1.34300000e+03
-9.16300000e+03	-9.41000000e+02
-8.70800000e+03	4.70000000e+02
-9.11400000e+03	-2.13000000e+02
-9.63000000e+03	2.57000000e+02
-9.11700000e+03	-4.06000000e+02
-9.08700000e+03	-5.00000000e+00
-9.47500000e+03	2.49000000e+02
-7.90700000e+03	3.54000000e+02
-9.52300000e+03	5.79000000e+02
-9.20700000e+03	6.53000000e+02
-9.23300000e+03	6.15000000e+02
-9.37400000e+03	8.00000000e+00
-9.34000000e+03	-2.80000000e+01
-9.13200000e+03	1.99000000e+02
-8.89200000e+03	2.79000000e+02
-8.89300000e+03	3.07000000e+02
-8.36600000e+03	-3.67000000e+02
-9.27800000e+03	8.28000000e+02
-8.89700000e+03	1.54000000e+02
-9.63900000e+03	-3.73000000e+02
-8.23500000e+03	7.23000000e+02
-9.38700000e+03	4.76000000e+02
-9.28200000e+03	1.68000000e+02
-9.31300000e+03	-5.90000000e+01
-1.00040000e+04	-2.63000000e+02
-8.78900000e+03	1.42000000e+02
-1.01200000e+04	-8.94000000e+02
-9.09400000e+03	2.43000000e+02
-9.60600000e+03	-4.03000000e+02
-1.00670000e+04	1.07000000e+02
-1.00800000e+04	9.70000000e+01
-8.41800000e+03	-3.90000000e+01
-8.77000000e+03	-1.21700000e+03
-8.96900000e+03	1.66000000e+02
-9.11300000e+03	3.98000000e+02
-8.86400000e+03	5.80000000e+01
-8.95600000e+03	1.25000000e+02
-8.79300000e+03	-1.42000000e+02
-9.56400000e+03	-9.50000000e+01
-8.63400000e+03	3.72000000e+02
-9.30900000e+03	-4.65000000e+02
-9.75000000e+03	3.33000000e+02
-9.84400000e+03	-5.60000000e+01
-8.82600000e+03	-4.16000000e+02
-9.10300000e+03	-2.16000000e+02
-8.99500000e+03	-4.58000000e+02
-8.51800000e+03	3.87000000e+02
-9.23400000e+03	2.38000000e+02
-8.95400000e+03	-6.78000000e+02
-8.88500000e+03	-6.30000000e+02
-9.27100000e+03	5.22000000e+02
-9.70100000e+03	-3.19000000e+02
-9.63800000e+03	-3.49000000e+02
-9.01800000e+03	5.65000000e+02
-8.74900000e+03	-2.87000000e+02
-9.29600000e+03	1.83000000e+02
-9.25000000e+03	-4.51000000e+02
-9.88700000e+03	9.83000000e+02
-9.62100000e+03	2.55000000e+02
-9.00000000e+03	-4.17000000e+02
-9.82100000e+03	-2.04000000e+02
-8.93900000e+03	-5.51000000e+02
-9.23200000e+03	-5.19000000e+02
-9.66700000e+03	-4.83000000e+02
-8.97000000e+03	1.43000000e+02
-9.01200000e+03	-3.83000000e+02
-8.49600000e+03	3.29000000e+02
-8.92400000e+03	4.01000000e+02
-8.87100000e+03	5.10000000e+01
-9.01200000e+03	9.20000000e+01
-9.11700000e+03	-9.50000000e+01
-9.33100000e+03	-2.15000000e+02
-9.20100000e+03	-3.96000000e+02
-8.99700000e+03	5.84000000e+02
-9.52400000e+03	-3.63000000e+02
-9.36300000e+03	-2.59000000e+02
-9.59400000e+03	2.06000000e+02
-9.04400000e+03	-9.51000000e+02
-9.17300000e+03	4.84000000e+02
-8.97200000e+03	7.20000000e+01
-9.39500000e+03	1.00000000e+02
-9.51200000e+03	1.01000000e+02
-9.60600000e+03	1.49000000e+02
-8.98900000e+03	2.09000000e+02
-9.64900000e+03	-1.14000000e+02
-9.48300000e+03	9.80000000e+01
-9.02900000e+03	5.45000000e+02
-9.68300000e+03	1.44000000e+02
-9.72500000e+03	-9.85000000e+02
-9.53500000e+03	7.61000000e+02
-9.34500000e+03	-6.00000000e+01
-9.19000000e+03	-3.71000000e+02
-9.91900000e+03	-2.47000000e+02
-8.98400000e+03	-3.83000000e+02
-9.86500000e+03	2.64000000e+02
-8.88400000e+03	1.40000000e+01
-9.57500000e+03	3.15000000e+02
-9.57200000e+03	2.93000000e+02
-1.03240000e+04	6.00000000e+01
-8.41500000e+03	-6.68000000e+02
-9.47700000e+03	-4.04000000e+02
-8.39900000e+03	3.61000000e+02
-9.65700000e+03	-3.32000000e+02
-9.25700000e+03	-1.39000000e+02
-8.92900000e+03	2.89000000e+02
-9.92600000e+03	1.04000000e+02
-8.88300000e+03	1.98000000e+02
-9.73100000e+03	-5.60000000e+01
-8.82600000e+03	-3.10000000e+01
-9.72300000e+03	2.94000000e+02
-9.52400000e+03	4.82000000e+02
-8.89100000e+03	-5.82000000e+02
-9.23400000e+03	2.03000000e+02
-8.90200000e+03	2.22000000e+02
-9.76800000e+03	-6.62000000e+02
-8.91200000e+03	-3.72000000e+02
-8.91500000e+03	3.34000000e+02
-1.02590000e+04	-7.54000000e+02
-9.54800000e+03	5.42000000e+02
-9.06700000e+03	-9.97000000e+02
-8.83100000e+03	1.26000000e+02
-9.42400000e+03	-4.16000000e+02
-8.72400000e+03	3.69000000e+02
-1.01050000e+04	-5.80000000e+01
-9.66300000e+03	-3.56000000e+02
-9.88700000e+03	-4.22000000e+02
-9.05900000e+03	-6.38000000e+02
-9.39700000e+03	4.79000000e+02
-9.16800000e+03	4.33000000e+02
-9.43300000e+03	-1.20000000e+02
-9.91500000e+03	-2.53000000e+02
-9.47800000e+03	-6.97000000e+02
-8.27300000e+03	2.72000000e+02
-9.73700000e+03	-1.80000000e+01
-8.78900000e+03	6.90000000e+01
-8.85400000e+03	2.90000000e+02
-9.72900000e+03	3.96000000e+02
-9.63600000e+03	8.34000000e+02
-9.47900000e+03	2.87000000e+02
-8.20100000e+03	-5.99000000e+02
-9.75300000e+03	4.42000000e+02
-8.76400000e+03	-3.74000000e+02
-9.07300000e+03	6.29000000e+02
-8.58800000e+03	-4.92000000e+02
-9.04700000e+03	-4.43000000e+02
-9.70000000e+03	4.06000000e+02
-9.40700000e+03	2.34000000e+02
-9.57200000e+03	-7.90000000e+01
-9.28800000e+03	-5.00000000e+00
-1.01750000e+04	-6.98000000e+02
-8.96500000e+03	1.40000000e+02
-9.40000000e+03	1.72000000e+02
-9.54200000e+03	1.80000000e+01
-9.37000000e+03	-6.94000000e+02
-9.91100000e+03	-8.00000000e+00
-8.29400000e+03	-3.31000000e+02
-9.83400000e+03	8.31000000e+02
-9.26800000e+03	-2.08000000e+02
-9.42800000e+03	-3.65000000e+02
-9.82300000e+03	-7.50000000e+01
-9.58300000e+03	4.10000000e+02
-9.44500000e+03	1.38000000e+02
-9.37000000e+03	6.04000000e+02
-8.90800000e+03	1.33000000e+02
-9.20900000e+03	3.90000000e+01
-9.09900000e+03	3.38000000e+02
-9.43500000e+03	-3.01000000e+02
-9.03300000e+03	-3.03000000e+02
-9.33200000e+03	6.00000000e+01
-8.44700000e+03	1.38300000e+03
-1.03840000e+04	5.43000000e+02
-9.56600000e+03	-3.93000000e+02
-8.54100000e+03	-1.23000000e+02
-9.26000000e+03	3.74000000e+02
-9.04200000e+03	3.66000000e+02
-9.58300000e+03	-2.58000000e+02
-8.55700000e+03	-5.20000000e+01
-9.35400000e+03	5.51000000e+02
-9.34100000e+03	-8.00000000e+01
-8.79000000e+03	-5.08000000e+02
-9.74000000e+03	-4.24000000e+02
-9.43400000e+03	-2.00000000e+02
-9.31900000e+03	2.29000000e+02
-9.17000000e+03	-8.20000000e+01
-8.97900000e+03	-2.14000000e+02
-9.56800000e+03	3.11000000e+02
-9.65100000e+03	4.35000000e+02
-9.02200000e+03	-1.03300000e+03
-9.67000000e+03	-2.17000000e+02
-9.49200000e+03	-6.87000000e+02
-9.12600000e+03	-2.61000000e+02
-8.55400000e+03	3.96000000e+02
-9.09600000e+03	-7.25000000e+02
-9.41100000e+03	-1.36000000e+02
-9.49400000e+03	3.55000000e+02
-9.16300000e+03	-2.73000000e+02
-8.55400000e+03	3.27000000e+02
-9.06400000e+03	2.14000000e+02
-8.34800000e+03	-6.70000000e+01
-9.50000000e+03	1.11000000e+02
-9.73300000e+03	2.48000000e+02
-8.71100000e+03	-1.49000000e+02
-8.74600000e+03	-4.94000000e+02
-9.69900000e+03	4.08000000e+02
-9.57200000e+03	-2.13000000e+02
-9.44700000e+03	1.48000000e+03
-9.46300000e+03	-8.20000000e+01
-9.93500000e+03	1.35000000e+02
-9.20200000e+03	1.60000000e+02
-9.21900000e+03	-2.56000000e+02
-9.55200000e+03	-5.93000000e+02
-9.27800000e+03	3.82000000e+02
-9.24200000e+03	-6.10000000e+01
-9.50200000e+03	9.70000000e+01
-8.27800000e+03	-3.13000000e+02
-9.87700000e+03	3.50000000e+01
-8.88700000e+03	-5.81000000e+02
-9.37500000e+03	1.98000000e+02
-9.17000000e+03	4.04000000e+02
-9.21100000e+03	-1.20000000e+01
-9.57500000e+03	6.05000000e+02
-9.69800000e+03	-5.43000000e+02
-9.07800000e+03	1.51000000e+02
-9.91700000e+03	6.09000000e+02
-9.29500000e+03	-1.00100000e+03
-8.56200000e+03	-1.36000000e+02
-9.98200000e+03	7.80000000e+01
-8.98000000e+03	-2.88000000e+02
-9.43900000e+03	8.19000000e+02
-8.93900000e+03	-1.43000000e+02
-9.42300000e+03	-3.62000000e+02
-8.93000000e+03	-1.57000000e+02
-1.03640000e+04	-5.40000000e+02
-8.98900000e+03	2.79000000e+02
-9.66400000e+03	-2.17000000e+02
-9.43600000e+03	3.37000000e+02
-1.04330000e+04	1.77000000e+02
-9.61500000e+03	-1.45200000e+03
-9.25100000e+03	-1.00900000e+03
-8.88700000e+03	4.57000000e+02
-1.00230000e+04	5.20000000e+01
-9.15800000e+03	-3.17000000e+02
-9.05500000e+03	5.09000000e+02
-9.38200000e+03	3.50000000e+02
-9.64400000e+03	1.95000000e+02
-9.19400000e+03	2.93000000e+02
-8.67800000e+03	-1.42000000e+02
-9.57700000e+03	1.64000000e+02
-9.60900000e+03	-4.58000000e+02
-8.28500000e+03	-3.65000000e+02
-9.58400000e+03	3.30000000e+02
-8.76000000e+03	4.00000000e+01
-9.25800000e+03	-5.50000000e+01
-9.19900000e+03	-1.96000000e+02
-9.17800000e+03	6.01000000e+02
-8.86800000e+03	6.69000000e+02
-9.77000000e+03	-3.53000000e+02
-9.28400000e+03	4.13000000e+02
-9.09000000e+03	-6.70000000e+01
-9.05500000e+03	3.36000000e+02
-8.98600000e+03	-5.41000000e+02
-9.88200000e+03	-1.65000000e+02
-9.30400000e+03	1.22000000e+02
-9.64100000e+03	-3.05000000e+02
-9.54000000e+03	-1.01800000e+03
-9.77400000e+03	2.20000000e+01
-9.11500000e+03	1.94000000e+02
-8.61500000e+03	-1.40000000e+01
-9.43700000e+03	-2.83000000e+02
-9.03700000e+03	-7.40000000e+01
-8.76100000e+03	-6.70000000e+01
-1.00470000e+04	-2.32000000e+02
-9.63900000e+03	-1.21000000e+02
-9.43600000e+03	-4.36000000e+02
-9.29200000e+03	-9.91000000e+02
-9.75400000e+03	2.58000000e+02
-9.24400000e+03	3.70000000e+01
-9.60000000e+03	-7.49000000e+02
-9.64100000e+03	7.42000000e+02
-8.90900000e+03	-4.46000000e+02
-9.03300000e+03	-8.00000000e+02
-9.13700000e+03	-3.82000000e+02
-9.32200000e+03	1.12200000e+03
-9.40900000e+03	-5.50000000e+01
-8.99600000e+03	9.90000000e+01
-9.27200000e+03	-4.39000000e+02
-9.09500000e+03	4.78000000e+02
-8.81700000e+03	6.51000000e+02
-9.71000000e+03	2.67000000e+02
-9.53200000e+03	3.75000000e+02
-9.02300000e+03	-1.03000000e+02
-8.30000000e+03	1.57000000e+02
-8.58300000e+03	-3.14000000e+02
-8.79500000e+03	5.82000000e+02
-9.62000000e+03	1.19000000e+02
-9.83700000e+03	4.00000000e+00
-9.03900000e+03	-4.95000000e+02
-9.52300000e+03	2.97000000e+02
-9.28600000e+03	-9.80000000e+01
-1.01370000e+04	-7.63000000e+02
-8.91100000e+03	3.03000000e+02
-9.51000000e+03	-3.58000000e+02
-9.80100000e+03	-6.72000000e+02
-9.86400000e+03	-6.92000000e+02
-9.69600000e+03	-3.21000000e+02
-9.01300000e+03	3.28000000e+02
-9.23000000e+03	-5.34000000e+02
-9.39700000e+03	-6.49000000e+02
-9.21900000e+03	2.00000000e+00
-9.54900000e+03	-5.11000000e+02
-9.72200000e+03	-2.78000000e+02
-8.61100000e+03	-2.69000000e+02
-8.98500000e+03	2.55000000e+02
-9.28200000e+03	7.26000000e+02
-9.22800000e+03	5.76000000e+02
-9.45600000e+03	-9.92000000e+02
-9.30800000e+03	-1.44000000e+02
-8.83800000e+03	-8.00000000e+00
-8.73800000e+03	7.00000000e+01
-9.60700000e+03	-1.67000000e+02
-9.81600000e+03	2.90000000e+01
-9.47400000e+03	5.30000000e+02
-8.89300000e+03	1.07200000e+03
-9.13000000e+03	-1.15000000e+02
-9.22000000e+03	5.07000000e+02
-9.74100000e+03	-3.93000000e+02
-8.65200000e+03	-5.50000000e+02
-8.63300000e+03	1.49400000e+03
-9.46700000e+03	-7.50000000e+01
-8.90700000e+03	-5.03000000e+02
-9.37700000e+03	-2.06000000e+02
-9.68500000e+03	2.00000000e+01
-9.29300000e+03	-4.17000000e+02
-9.50000000e+03	-3.10000000e+02
-9.21800000e+03	-4.11000000e+02
-9.70200000e+03	4.65000000e+02
-8.94300000e+03	-9.89000000e+02
-8.95100000e+03	3.04000000e+02
-9.24000000e+03	-4.46000000e+02
-8.44300000e+03	-1.24500000e+03
-8.89700000e+03	-3.87000000e+02
-1.00550000e+04	3.84000000e+02
-9.89500000e+03	-6.35000000e+02
-8.86100000e+03	-3.18000000e+02
-9.53000000e+03	-3.72000000e+02
-8.95100000e+03	-3.57000000e+02
-8.93900000e+03	7.50000000e+01
-9.66500000e+03	-3.47000000e+02
-8.95000000e+03	-8.70000000e+01
-9.19700000e+03	5.75000000e+02
-9.55800000e+03	-2.73000000e+02
-8.81700000e+03	4.90000000e+02
-9.04600000e+03	-2.80000000e+02
-9.12900000e+03	-7.50000000e+02
-9.09700000e+03	4.46000000e+02
-8.83400000e+03	1.36000000e+02
-9.08400000e+03	-5.40000000e+02
-9.20300000e+03	-3.24000000e+02
-9.58100000e+03	-5.93000000e+02
-9.60400000e+03	-3.73000000e+02
-7.55500000e+03	2.40000000e+02
-9.46700000e+03	-7.90000000e+01
-9.72100000e+03	1.85000000e+02
-8.55800000e+03	1.81000000e+02
-8.49200000e+03	-4.26000000e+02
-9.29000000e+03	3.00000000e+01
-8.55900000e+03	-6.55000000e+02
-8.46900000e+03	1.76000000e+02
-9.26900000e+03	4.57000000e+02
-9.98000000e+03	-3.11000000e+02
-9.10700000e+03	-3.80000000e+02
-9.76800000e+03	-2.81000000e+02
-9.66600000e+03	7.42000000e+02
-1.01190000e+04	-2.09000000e+02
-9.17200000e+03	-3.99000000e+02
-9.39400000e+03	-3.39000000e+02
-9.95300000e+03	-5.19000000e+02
-9.37400000e+03	-1.21000000e+02
-8.78900000e+03	4.35000000e+02
-8.55300000e+03	7.22000000e+02
-9.41400000e+03	-8.81000000e+02
-9.33400000e+03	-3.40000000e+02
-9.38800000e+03	1.14000000e+02
-9.81700000e+03	-9.46000000e+02
-8.98800000e+03	-3.03000000e+02
-9.23000000e+03	1.36000000e+02
-8.75000000e+03	-5.43000000e+02
-9.88300000e+03	1.73000000e+02
-9.54000000e+03	-6.28000000e+02
-8.81300000e+03	-1.27000000e+02
-9.28900000e+03	-2.24000000e+02
-9.69400000e+03	-3.37000000e+02
-9.18800000e+03	5.13000000e+02
-9.74700000e+03	3.34000000e+02
-8.26000000e+03	6.60000000e+01
-8.20300000e+03	-2.00000000e+00
-8.92000000e+03	6.39000000e+02
-9.56500000e+03	5.06000000e+02
-8.95000000e+03	1.64000000e+02
-8.94800000e+03	-6.11000000e+02
-9.26700000e+03	-1.99000000e+02
-9.63800000e+03	-4.73000000e+02
-9.10900000e+03	7.30000000e+01
-8.64400000e+03	-7.13000000e+02
-8.87600000e+03	-3.80000000e+02
-9.21300000e+03	3.28000000e+02
-8.60200000e+03	-5.53000000e+02
-9.62800000e+03	-1.61000000e+02
-9.28400000e+03	8.81000000e+02
-8.64800000e+03	5.90000000e+02
-9.50100000e+03	-2.39000000e+02
-9.34400000e+03	5.55000000e+02
-9.76200000e+03	-2.15000000e+02
-8.05800000e+03	-3.34000000e+02
-9.42900000e+03	-1.06200000e+03
-9.16500000e+03	-4.49000000e+02
-9.61300000e+03	7.79000000e+02
-9.65500000e+03	-2.34000000e+02
-8.48000000e+03	1.23300000e+03
-9.66300000e+03	5.00000000e+00
-8.36800000e+03	1.56000000e+02
-9.42700000e+03	-2.80000000e+01
-8.98700000e+03	-5.03000000e+02
-9.22000000e+03	7.91000000e+02
-1.02820000e+04	-6.33000000e+02
-1.01810000e+04	-3.85000000e+02
-7.93800000e+03	2.81000000e+02
-9.30800000e+03	-8.10000000e+02
-8.95500000e+03	2.78000000e+02
-8.72600000e+03	-3.47000000e+02
-9.03800000e+03	3.07000000e+02
-9.65000000e+03	-7.10000000e+01
-9.20200000e+03	-2.86000000e+02
-9.74200000e+03	-3.03000000e+02
-9.42300000e+03	2.61000000e+02
-9.05900000e+03	-3.34000000e+02
-1.00580000e+04	2.57000000e+02
-8.87300000e+03	2.59000000e+02
-8.87200000e+03	-2.36000000e+02
-9.34600000e+03	1.90000000e+01
-8.98700000e+03	-5.04000000e+02
-9.13600000e+03	-1.60000000e+02
-9.07400000e+03	-5.16000000e+02
-9.18200000e+03	-5.77000000e+02
-9.53700000e+03	8.48000000e+02
-9.05800000e+03	1.71000000e+02
-9.15400000e+03	6.26000000e+02
-8.97600000e+03	7.30000000e+01
-9.76100000e+03	-5.00000000e+01
-9.26200000e+03	2.38000000e+02
-8.68900000e+03	-1.66000000e+02
-8.26900000e+03	-5.64000000e+02
-8.73300000e+03	1.21000000e+02
-9.48800000e+03	-2.23000000e+02
-9.16200000e+03	-7.66000000e+02
-9.15500000e+03	-2.65000000e+02
-1.01610000e+04	4.28000000e+02
-8.55000000e+03	3.44000000e+02
-8.98200000e+03	-4.55000000e+02
-9.28900000e+03	4.32000000e+02
-9.17800000e+03	6.18000000e+02
-9.41900000e+03	7.30000000e+01
-9.35400000e+03	5.75000000e+02
-8.79500000e+03	-6.50000000e+01
-9.82500000e+03	8.90000000e+02
-9.38500000e+03	-4.81000000e+02
-9.23500000e+03	3.10000000e+02
-8.83200000e+03	-8.52000000e+02
-9.96700000e+03	5.05000000e+02
-9.14900000e+03	-1.41000000e+02
-9.52600000e+03	6.40000000e+01
-9.21100000e+03	-2.13000000e+02
-8.74100000e+03	2.76000000e+02
-9.08600000e+03	5.11000000e+02
-9.88000000e+03	6.54000000e+02
-1.00060000e+04	1.62000000e+02
-8.66200000e+03	2.04000000e+02
-9.55100000e+03	-9.70000000e+01
-9.63600000e+03	8.70000000e+01
-9.46800000e+03	-9.00000000e+00
-9.85600000e+03	-1.30000000e+01
-9.39000000e+03	5.30000000e+01
-8.87000000e+03	-5.96000000e+02
-9.36500000e+03	1.70000000e+02
-1.01250000e+04	-1.47000000e+02
-8.82500000e+03	-6.40000000e+01
-8.42000000e+03	3.89000000e+02
-9.29300000e+03	3.36000000e+02
-8.53700000e+03	1.33000000e+02
-9.08300000e+03	-1.52000000e+02
-9.09800000e+03	-1.40000000e+02
-9.46600000e+03	-1.00000000e+02
-8.97300000e+03	-5.00000000e+01
-9.26000000e+03	-3.02000000e+02
-9.55100000e+03	-4.88000000e+02
-8.80800000e+03	1.07000000e+02
-8.95300000e+03	-3.79000000e+02
-9.74600000e+03	-5.61000000e+02
-8.14200000e+03	-2.47000000e+02
-9.02300000e+03	-9.62000000e+02
-8.98200000e+03	-9.00000000e+01
-9.49900000e+03	-5.50000000e+02
-9.28700000e+03	-8.67000000e+02
-9.52800000e+03	3.15000000e+02
-8.36700000e+03	2.27000000e+02
-9.89500000e+03	-1.88000000e+02
-9.57100000e+03	-4.12000000e+02
-8.20000000e+03	8.40000000e+01
-9.50200000e+03	1.40000000e+02
-1.00240000e+04	-1.20000000e+01
-9.13400000e+03	-3.27000000e+02
-9.01000000e+03	2.59000000e+02
-9.55300000e+03	1.29000000e+02
-8.07700000e+03	1.80000000e+02
-9.44900000e+03	1.21000000e+02
-8.78500000e+03	-2.27000000e+02
-9.71400000e+03	-7.10000000e+02
-9.63300000e+03	6.11000000e+02
-8.92400000e+03	-6.36000000e+02
-8.94600000e+03	-4.50000000e+01
-9.53600000e+03	1.16000000e+02
-8.96700000e+03	-4.74000000e+02
-9.20500000e+03	-3.91000000e+02
-9.78100000e+03	-3.68000000e+02
-9.83200000e+03	3.18000000e+02
-9.15700000e+03	-1.55000000e+02
-9.67200000e+03	1.39000000e+02
-8.73200000e+03	-4.65000000e+02
-9.02700000e+03	1.46000000e+02
-9.55100000e+03	-4.22000000e+02
-9.26800000e+03	-8.00000000e+01
-8.99800000e+03	-2.75000000e+02
-8.40900000e+03	-3.55000000e+02
-9.23200000e+03	3.58000000e+02
-1.02520000e+04	2.01000000e+02
-9.31000000e+03	3.72000000e+02
-9.59800000e+03	-4.50000000e+01
-8.50900000e+03	-3.52000000e+02
-8.86300000e+03	-2.05000000e+02
-9.30200000e+03	5.01000000e+02
-9.02200000e+03	4.12000000e+02
-9.04200000e+03	1.50000000e+01
-9.39300000e+03	-3.74000000e+02
-9.22800000e+03	-6.70000000e+01
-8.96300000e+03	-4.85000000e+02
-9.51500000e+03	-1.30900000e+03
-9.44100000e+03	-2.40000000e+01
-8.99300000e+03	-3.35000000e+02
-9.50300000e+03	2.57000000e+02
-1.01400000e+04	-2.80000000e+01
-8.54700000e+03	3.47000000e+02
-9.90300000e+03	-1.15000000e+02
-9.27000000e+03	4.65000000e+02
-9.07600000e+03	-5.55000000e+02
-8.71900000e+03	-1.33000000e+02
-9.34500000e+03	-5.00000000e+01
-9.25600000e+03	-2.21000000e+02
-1.03800000e+04	3.00000000e+01
-8.74100000e+03	4.14000000e+02
-9.27300000e+03	2.18000000e+02
-9.25800000e+03	-1.25000000e+02
-9.78800000e+03	4.70000000e+02
-9.13900000e+03	5.13000000e+02
-8.80800000e+03	-2.20000000e+01
-9.55500000e+03	1.00000000e+00
-8.92000000e+03	2.26000000e+02
-9.75400000e+03	-1.73000000e+02
-9.24200000e+03	-4.24000000e+02
-9.26500000e+03	7.50000000e+01
-9.31600000e+03	-2.75000000e+02
-9.13300000e+03	1.45000000e+02
-9.28300000e+03	-4.52000000e+02
-8.73500000e+03	-2.56000000e+02
-9.57600000e+03	-2.44000000e+02
-8.83700000e+03	1.08200000e+03
-8.96600000e+03	3.19000000e+02
-9.71000000e+03	-1.34000000e+02
-9.18500000e+03	4.93000000e+02
-8.67500000e+03	-5.39000000e+02
-8.66600000e+03	-4.00000000e+00
-9.19700000e+03	4.72000000e+02
-8.51900000e+03	-4.71000000e+02
-9.23300000e+03	4.30000000e+01
-9.12500000e+03	4.51000000e+02
-8.02200000e+03	-3.28000000e+02
-8.64600000e+03	3.78000000e+02
-8.61400000e+03	-5.67000000e+02
-9.00700000e+03	4.91000000e+02
-8.38700000e+03	-9.60000000e+01
-9.86300000e+03	4.29000000e+02
-8.80400000e+03	3.25000000e+02
-9.47000000e+03	-1.89000000e+02
-9.31300000e+03	-3.80000000e+02
-8.63900000e+03	-1.49000000e+02
-9.16600000e+03	2.21000000e+02
-9.15400000e+03	3.20000000e+01
-8.22800000e+03	5.20000000e+01
-8.43100000e+03	1.17000000e+02
-9.81400000e+03	-2.46000000e+02
-8.57100000e+03	3.54000000e+02
-9.88900000e+03	-4.23000000e+02
-8.95200000e+03	-7.19000000e+02
-9.83500000e+03	1.42000000e+02
-9.65600000e+03	-5.81000000e+02
-9.61400000e+03	-5.46000000e+02
-1.03360000e+04	5.83000000e+02
-9.18000000e+03	1.80000000e+01
-9.03400000e+03	-1.17900000e+03
-8.60300000e+03	6.20000000e+01
-9.32300000e+03	1.00400000e+03
-9.89100000e+03	3.63000000e+02
-9.14600000e+03	-2.81000000e+02
-9.23300000e+03	-4.49000000e+02
-9.16200000e+03	5.80000000e+02
-9.96200000e+03	1.89000000e+02
-1.00450000e+04	1.70000000e+01
-8.89500000e+03	-5.40000000e+01
-8.08200000e+03	2.20000000e+01
-8.53300000e+03	-2.83000000e+02
-9.74500000e+03	5.21000000e+02
-8.99500000e+03	2.92000000e+02
-9.39400000e+03	4.23000000e+02
-8.84200000e+03	-7.17000000e+02
-9.74300000e+03	5.09000000e+02
-8.89500000e+03	-3.23000000e+02
-9.02300000e+03	-2.79000000e+02
-9.23100000e+03	-2.25000000e+02
-8.93900000e+03	7.76000000e+02
-9.75900000e+03	-8.73000000e+02
-8.81700000e+03	-3.84000000e+02
-9.69300000e+03	4.70000000e+01
-9.01900000e+03	5.60000000e+01
-9.82700000e+03	4.74000000e+02
-9.03100000e+03	6.02000000e+02
-9.39400000e+03	-2.06000000e+02
-8.69800000e+03	1.40000000e+02
-9.30400000e+03	7.40000000e+02
-9.19900000e+03	2.12000000e+02
-8.33000000e+03	4.26000000e+02
-9.49500000e+03	2.03000000e+02
-9.31000000e+03	-5.10000000e+01
-8.44400000e+03	2.20000000e+02
-8.68700000e+03	-2.46000000e+02
-9.30700000e+03	-7.89000000e+02
-8.84300000e+03	8.44000000e+02
-9.25500000e+03	7.82000000e+02
-9.10400000e+03	-2.70000000e+01
-9.15400000e+03	8.00000000e+00
-9.12900000e+03	-3.17000000e+02
-1.01320000e+04	-5.97000000e+02
-9.30500000e+03	-6.33000000e+02
-9.45600000e+03	3.28000000e+02
-9.34600000e+03	-3.66000000e+02
-1.00830000e+04	1.95000000e+02
-9.00300000e+03	-1.00000000e+02
-9.33600000e+03	2.48000000e+02
-9.72900000e+03	-2.57000000e+02
-9.30800000e+03	3.81000000e+02
-9.52100000e+03	-4.10000000e+02
-9.78600000e+03	1.89000000e+02
-9.24800000e+03	6.04000000e+02
-9.15700000e+03	2.53000000e+02
-8.05300000e+03	2.59000000e+02
-9.25800000e+03	-7.90000000e+01
-9.35700000e+03	-3.86000000e+02
-9.03500000e+03	-9.00000000e+01
-9.49400000e+03	4.11000000e+02
-9.99100000e+03	6.57000000e+02
-9.12500000e+03	3.64000000e+02
-9.57500000e+03	-2.47000000e+02
-8.59200000e+03	-2.34000000e+02
-9.33100000e+03	-2.39000000e+02
-9.94400000e+03	-1.46000000e+02
-9.42400000e+03	-1.80000000e+01
-8.61900000e+03	-1.38000000e+02
-9.48900000e+03	-6.23000000e+02
-8.86600000e+03	-9.01000000e+02
-9.23400000e+03	1.98000000e+02
-1.01620000e+04	4.50000000e+02
-9.42500000e+03	3.74000000e+02
-9.65600000e+03	1.90000000e+01
-9.27900000e+03	-3.20000000e+01
-9.49700000e+03	4.93000000e+02
-9.52400000e+03	-6.10000000e+01
-9.21100000e+03	8.80000000e+01
-7.88000000e+03	-3.00000000e+00
-9.16600000e+03	-5.70000000e+02
-8.72300000e+03	-2.52000000e+02
-9.16800000e+03	-7.50000000e+02
-9.28500000e+03	-3.14000000e+02
-9.74700000e+03	-3.18000000e+02
-8.89100000e+03	1.54000000e+02
-8.62200000e+03	-2.57000000e+02
-9.18300000e+03	-2.93000000e+02
-9.15600000e+03	1.38000000e+02
-8.78700000e+03	-1.08000000e+02
-9.22700000e+03	5.90000000e+01
-9.57400000e+03	-5.63000000e+02
-9.37400000e+03	3.96000000e+02
-8.99400000e+03	-3.69000000e+02
-9.19400000e+03	3.80000000e+02
-9.97400000e+03	-4.08000000e+02
-8.64700000e+03	-3.77000000e+02
-8.56700000e+03	-1.03000000e+02
-9.29100000e+03	8.95000000e+02
-8.19900000e+03	3.63000000e+02
-9.07800000e+03	4.50000000e+01
-9.08000000e+03	4.02000000e+02
-8.97100000e+03	7.40000000e+01
-9.20400000e+03	3.73000000e+02
-9.11900000e+03	4.00000000e+01
-8.62900000e+03	4.13000000e+02
-9.72200000e+03	5.16000000e+02
-8.71900000e+03	-2.69000000e+02
-9.54200000e+03	-1.13000000e+02
-9.21600000e+03	1.89000000e+02
-9.37500000e+03	-6.00000000e+01
-8.78600000e+03	6.90000000e+01
-8.62500000e+03	-4.87000000e+02
-9.67800000e+03	9.00000000e+01
-9.27000000e+03	3.44000000e+02
-9.76100000e+03	5.86000000e+02
-9.39300000e+03	2.23000000e+02
-9.12100000e+03	-3.00000000e+00
-9.06000000e+03	1.02000000e+02
-9.30600000e+03	1.93000000e+02
-9.72800000e+03	-5.60000000e+01
-9.95300000e+03	3.18000000e+02
-9.40300000e+03	4.73000000e+02
-9.27700000e+03	-4.82000000e+02
-9.66600000e+03	2.20000000e+02
-9.40200000e+03	5.80000000e+01
-8.82900000e+03	-3.15000000e+02
-9.01800000e+03	-5.69000000e+02
-9.09800000e+03	-2.54000000e+02
-9.10300000e+03	-8.31000000e+02
-9.38300000e+03	1.97000000e+02
-8.90500000e+03	-4.68000000e+02
-9.54100000e+03	3.06000000e+02
-9.19900000e+03	2.86000000e+02
-9.63800000e+03	-6.22000000e+02
-8.75500000e+03	-3.43000000e+02
-9.41800000e+03	4.62000000e+02
-9.68100000e+03	-5.10000000e+01
-8.92500000e+03	3.03000000e+02
-9.92800000e+03	-2.08000000e+02
-8.64000000e+03	2.21000000e+02
-9.00000000e+03	5.66000000e+02
-9.01100000e+03	4.62000000e+02
-8.83900000e+03	-5.36000000e+02
-9.39800000e+03	2.41000000e+02
-9.17000000e+03	4.30000000e+01
-9.53900000e+03	-1.19200000e+03
-8.64200000e+03	4.67000000e+02
-8.89100000e+03	2.59000000e+02
-9.54700000e+03	1.57000000e+02
-9.84700000e+03	-1.00000000e+01
-9.03100000e+03	-9.60000000e+02
-9.50900000e+03	-5.27000000e+02
-8.51900000e+03	-5.80000000e+01
-9.77200000e+03	-6.74000000e+02
-9.38700000e+03	3.83000000e+02
-8.67500000e+03	5.38000000e+02
-9.78400000e+03	1.75000000e+02
-9.07500000e+03	3.86000000e+02
-9.10700000e+03	-2.33000000e+02
-9.29800000e+03	-1.28800000e+03
-8.91900000e+03	-3.91000000e+02
-9.09600000e+03	-7.70000000e+01
-9.37300000e+03	2.78000000e+02
-9.27800000e+03	5.65000000e+02
-9.60100000e+03	6.65000000e+02
-9.33200000e+03	1.82000000e+02
-9.41200000e+03	2.25000000e+02
-8.97100000e+03	-1.02000000e+02
-9.40900000e+03	1.32000000e+03
-8.72200000e+03	-2.02000000e+02
-9.02500000e+03	-2.99000000e+02
-9.47400000e+03	-5.08000000e+02
-8.53500000e+03	-4.85000000e+02
-9.20100000e+03	-4.22000000e+02
-8.67600000e+03	2.87000000e+02
-8.91200000e+03	-4.46000000e+02
-9.49100000e+03	-1.68000000e+02
-9.19900000e+03	2.59000000e+02
-9.21400000e+03	-2.17000000e+02
-8.49800000e+03	-4.28000000e+02
-9.06300000e+03	-5.47000000e+02
-9.53500000e+03	-6.68000000e+02
-9.16900000e+03	4.38000000e+02
-9.38400000e+03	3.12000000e+02
-9.50000000e+03	3.69000000e+02
-9.53200000e+03	3.45000000e+02
-9.60900000e+03	-4.26000000e+02
-9.42600000e+03	4.77000000e+02
-9.04900000e+03	-2.82000000e+02
-9.30400000e+03	1.15000000e+02
-8.74900000e+03	-5.80000000e+02
-9.47200000e+03	8.00000000e+01
-9.39300000e+03	4.70000000e+02
-9.65300000e+03	1.07000000e+03
-8.11100000e+03	-5.46000000e+02
-8.63500000e+03	2.84000000e+02
-9.63900000e+03	-4.95000000e+02
-9.17400000e+03	1.30000000e+02
-9.17900000e+03	2.05000000e+02
-9.16400000e+03	-3.09000000e+02
-9.06500000e+03	1.06800000e+03
-8.61500000e+03	-5.89000000e+02
-9.02600000e+03	-3.55000000e+02
-8.99000000e+03	2.57000000e+02
-9.14500000e+03	-3.33000000e+02
-8.62100000e+03	-1.55000000e+02
-8.70500000e+03	-3.75000000e+02
-9.63300000e+03	3.99000000e+02
-9.09400000e+03	-2.22000000e+02
-9.68300000e+03	-5.78000000e+02
-9.78800000e+03	2.15000000e+02
-8.82800000e+03	8.31000000e+02
-9.75300000e+03	-4.74000000e+02
-9.07100000e+03	2.25000000e+02
-9.09200000e+03	-7.10000000e+01
-8.54000000e+03	4.09000000e+02
-9.03400000e+03	-4.72000000e+02
-9.31500000e+03	-2.48000000e+02
-8.70700000e+03	-3.51000000e+02
-9.14900000e+03	5.80000000e+01
-9.15700000e+03	3.01000000e+02
-9.05300000e+03	-2.64000000e+02
-8.94800000e+03	3.92000000e+02
-9.40000000e+03	-3.30000000e+02
-9.34000000e+03	-1.32000000e+02
-9.58600000e+03	8.27000000e+02
-8.83500000e+03	-8.54000000e+02
-8.66000000e+03	-4.27000000e+02
-8.89600000e+03	-2.30000000e+01
-9.45400000e+03	-1.45000000e+02
-8.38000000e+03	2.04000000e+02
-9.24100000e+03	-2.02000000e+02
-9.27100000e+03	5.80000000e+02
-9.54500000e+03	-1.21000000e+02
-9.15300000e+03	8.40000000e+01
-9.85000000e+03	-6.31000000e+02
-8.80100000e+03	5.47000000e+02
-8.47200000e+03	-2.81000000e+02
-9.42900000e+03	1.46000000e+02
-9.11300000e+03	5.45000000e+02
-9.69300000e+03	2.45000000e+02
-9.10900000e+03	7.86000000e+02
-9.31800000e+03	8.90000000e+01
-9.16000000e+03	1.67000000e+02
-9.23300000e+03	5.63000000e+02
-8.64600000e+03	-4.50000000e+02
-9.45100000e+03	-3.86000000e+02
-9.46300000e+03	-2.59000000e+02
-8.43900000e+03	-1.53000000e+02
-8.90200000e+03	5.99000000e+02
-9.48500000e+03	-9.33000000e+02
-9.61600000e+03	7.78000000e+02
-9.64900000e+03	-1.57000000e+02
-9.21000000e+03	-8.87000000e+02
-9.49200000e+03	2.56000000e+02
-8.12100000e+03	-1.18700000e+03
-8.98700000e+03	-5.50000000e+02
-8.35400000e+03	2.59000000e+02
-9.73400000e+03	4.37000000e+02
-8.86500000e+03	-5.26000000e+02
-8.73200000e+03	-5.60000000e+02
-9.54800000e+03	3.57000000e+02
-9.52400000e+03	-7.22000000e+02
-8.27000000e+03	-4.22000000e+02
-8.76800000e+03	-4.40000000e+01
-9.49300000e+03	1.16000000e+02
-9.02300000e+03	-2.90000000e+02
-9.79000000e+03	-2.84000000e+02
-9.18000000e+03	-3.40000000e+01
-9.34700000e+03	6.84000000e+02
-9.01000000e+03	5.10000000e+01
-8.62200000e+03	3.38000000e+02
-1.03750000e+04	-3.29000000e+02
-8.93400000e+03	-4.74000000e+02
-9.53100000e+03	-1.56000000e+02
-8.97000000e+03	-2.80000000e+02
-9.74700000e+03	2.00000000e+00
-9.55200000e+03	1.95000000e+02
-9.47600000e+03	3.74000000e+02
-8.70300000e+03	-3.20000000e+02
-9.24600000e+03	8.10000000e+01
-8.87700000e+03	-2.67000000e+02
-9.08600000e+03	8.80000000e+01
-9.15800000e+03	-1.27000000e+02
-8.69000000e+03	-2.61000000e+02
-9.21300000e+03	-5.31000000e+02
-9.06900000e+03	-2.93000000e+02
-9.23800000e+03	5.90000000e+01
-8.67500000e+03	6.06000000e+02
-9.41400000e+03	-1.64000000e+02
-9.11000000e+03	2.97000000e+02
-8.94000000e+03	-1.03000000e+03
-9.63400000e+03	-8.72000000e+02
-9.07200000e+03	2.74000000e+02
-8.69000000e+03	-7.85000000e+02
-9.02700000e+03	1.69000000e+02
-1.01650000e+04	-2.10000000e+01
