Dangerplot_version	1.0
Number_of_points	1024
Sampling_frequency	1.00000000e+03
Transmitter_frequency	6.38660000e+07
Phi0	0
Phi1	0
PPM_reference	4.70000000e+00
Real_FID	Imag_FID	
7.03194845e+02	-2.03495231e+00
4.81802625e+02	4.27290802e+02
8.37049957e+01	5.00715050e+02
-1.30070471e+02	3.14867729e+02
-1.21406032e+02	1.78786130e+02
-1.26282585e+02	1.81727257e+02
-2.32212940e+02	1.48462924e+02
-2.96140551e+02	-1.23846247e+01
-2.02863868e+02	-1.73688494e+02
-5.14619646e+01	-2.03171296e+02
3.67273071e+01	-1.47193778e+02
7.06076635e+01	-1.10765480e+02
1.22235682e+02	-7.11557051e+01
1.56495144e+02	3.05575024e+01
7.68939439e+01	1.44540755e+02
-7.47406054e+01	1.40783888e+02
-1.43132235e+02	7.07320845e+00
-6.73502154e+01	-1.00435550e+02
3.79060524e+01	-7.09837804e+01
3.03183686e+01	1.25195126e+01
-4.66953498e+01	1.31321278e+00
-3.92297186e+01	-9.68601108e+01
8.12322514e+01	-1.32625200e+02
1.79866160e+02	-2.30278307e+01
1.35394000e+02	1.17284232e+02
6.47408192e+00	1.52079966e+02
-6.69958400e+01	8.51585553e+01
-5.92828781e+01	2.49555147e+01
-3.99890808e+01	1.39777160e+01
-4.68351924e+01	8.26160624e+00
-4.56215990e+01	-1.99980794e+01
-1.87194181e+01	-2.73512075e+01
-8.93348963e+00	-1.22893088e+01
-3.02221919e+01	-1.29820867e+01
-2.48129619e+01	-6.14847352e+01
4.74758707e+01	-7.57544485e+01
1.06777194e+02	2.20659356e+00
5.48069038e+01	1.04333326e+02
-6.72984237e+01	1.00832509e+02
-1.09557590e+02	-1.03899151e+01
-3.32788022e+01	-8.34563409e+01
4.36149977e+01	-4.28550862e+01
2.36100380e+01	2.69464037e+01
-4.85204422e+01	1.42705243e+01
-4.28219331e+01	-6.64406779e+01
4.13286441e+01	-9.29483160e+01
1.02287357e+02	-3.09671084e+01
8.86679594e+01	3.91984052e+01
4.65728874e+01	6.94022524e+01
1.93786666e+01	8.10043475e+01
-2.35821998e+01	9.41881637e+01
-9.23552416e+01	7.13454594e+01
-1.23349410e+02	-1.58260947e+01
-6.52516719e+01	-9.06474619e+01
1.88733993e+01	-8.06694013e+01
3.02245944e+01	-2.07473802e+01
-1.47168595e+01	-1.52047921e+01
-7.07883049e+00	-7.60215784e+01
8.57112429e+01	-8.72491894e+01
1.49572743e+02	1.16654201e+01
9.15287451e+01	1.29909883e+02
-3.64173947e+01	1.38758222e+02
-9.35573548e+01	5.37241759e+01
-6.18638532e+01	-9.73510530e+00
-3.04510587e+01	-6.12516398e-01
-5.08663572e+01	1.13603270e+01
-7.32071311e+01	-2.74683061e+01
-4.20073362e+01	-7.42861941e+01
6.64905007e+00	-7.34394099e+01
2.14474769e+01	-5.30906993e+01
2.95908181e+01	-6.05817142e+01
7.89024170e+01	-6.45382871e+01
1.29512765e+02	1.52177329e+00
9.70289961e+01	9.73696483e+01
-1.01189763e+01	1.18402571e+02
-6.24120271e+01	3.83928270e+01
-1.36666989e+00	-1.76227953e+01
5.49719826e+01	4.45004837e+01
-1.14668716e+01	1.34350726e+02
-1.53381848e+02	1.05633903e+02
-1.99071980e+02	-5.00659288e+01
-9.09155006e+01	-1.67826853e+02
4.14972431e+01	-1.44772760e+02
7.18145344e+01	-5.98305148e+01
4.45651544e+01	-3.79686476e+01
6.51139157e+01	-5.97213263e+01
1.27785592e+02	-2.04624352e+01
1.26026450e+02	8.44490276e+01
3.19985707e+01	1.46154694e+02
-5.80031476e+01	1.09917406e+02
-7.74912832e+01	5.18119204e+01
-7.72981784e+01	3.30676424e+01
-1.14530890e+02	1.33162039e+01
-1.37891748e+02	-7.99117911e+01
-4.65405615e+01	-1.83751996e+02
1.11209798e+02	-1.67037376e+02
1.82281667e+02	-1.96429712e+01
1.05227972e+02	1.00192960e+02
-4.72319345e+00	8.81452788e+01
-1.24795904e+01	1.71887370e+01
4.24255440e+01	2.87790114e+01
2.24698152e+01	1.07663172e+02
-9.95017572e+01	1.24626580e+02
-1.86760441e+02	8.21879074e+00
-1.35423164e+02	-1.39327836e+02
5.57967454e+00	-1.81032249e+02
1.04183327e+02	-1.11401488e+02
1.13458263e+02	-3.11414653e+01
9.79425066e+01	1.12423513e+01
9.33552780e+01	4.13753179e+01
7.01214844e+01	8.92803154e+01
9.16097598e+00	1.18133097e+02
-5.35950181e+01	9.55691265e+01
-7.64159659e+01	4.65371951e+01
-7.33777985e+01	1.70913227e+01
-8.07156143e+01	-9.67433986e-01
-8.42549183e+01	-4.75554019e+01
-4.49612171e+01	-1.02709372e+02
4.20653818e+01	-1.06395641e+02
1.02117152e+02	-3.72009384e+01
8.30771200e+01	4.96620990e+01
1.03126201e+01	7.88682180e+01
-4.10562216e+01	4.51451710e+01
-4.59548231e+01	1.50897302e+00
-2.86486730e+01	-9.67050229e+00
-2.70814295e+01	-4.05441128e+00
-4.30514216e+01	-1.55358942e+01
-4.57718065e+01	-5.50336756e+01
-1.01345063e+01	-9.33743680e+01
5.53759884e+01	-1.02729356e+02
1.20754911e+02	-5.49100499e+01
1.35881741e+02	2.71907738e+01
9.02236190e+01	9.91335300e+01
1.39598310e+01	1.18201045e+02
-3.37842911e+01	8.65150864e+01
-4.36387344e+01	5.34584439e+01
-4.56933922e+01	5.18867444e+01
-8.03679234e+01	4.95632996e+01
-1.21653461e+02	1.39214117e+00
-1.14559427e+02	-8.37690545e+01
-4.28558562e+01	-1.42929015e+02
5.26391748e+01	-1.35344903e+02
1.14153005e+02	-7.44610953e+01
1.28030636e+02	-1.30339452e+00
1.06554135e+02	6.01537513e+01
5.77071734e+01	1.04202083e+02
-9.72721625e+00	1.13813779e+02
-6.61275322e+01	8.25460479e+01
-8.42300737e+01	3.14394481e+01
-7.66831613e+01	-2.43896297e+00
-7.51368312e+01	-2.31681221e+01
-7.79347216e+01	-6.14963228e+01
-4.33180629e+01	-1.18527577e+02
4.48342815e+01	-1.39533400e+02
1.33205413e+02	-7.86577930e+01
1.46101291e+02	2.74548456e+01
7.93662785e+01	9.69058867e+01
7.76307677e+00	9.40794807e+01
-1.89390744e+01	6.18814530e+01
-2.13793878e+01	5.24118212e+01
-4.11956237e+01	5.63439204e+01
-7.87821456e+01	3.33252246e+01
-8.82970630e+01	-2.29496676e+01
-5.60479414e+01	-6.77811590e+01
-4.45248430e+00	-7.95221416e+01
3.34300306e+01	-6.12035166e+01
5.98199974e+01	-2.96682811e+01
6.25340046e+01	1.43953148e+01
3.13279054e+01	5.28632561e+01
-1.93897391e+01	5.24847821e+01
-4.68724136e+01	8.09219261e+00
-1.96027710e+01	-3.30756444e+01
2.46980453e+01	-1.81047380e+01
2.42867874e+01	2.72720105e+01
-2.86887429e+01	4.04529430e+01
-6.20763958e+01	-6.94266414e+00
-2.70638971e+01	-6.09426547e+01
3.54488773e+01	-5.63445648e+01
5.52595552e+01	-3.09318964e+00
2.50667468e+01	3.05304048e+01
-3.58142774e+00	1.84313401e+01
-3.10048161e-01	-3.43185782e+00
1.87009892e+01	-1.98384217e+00
1.93738691e+01	1.99494403e+01
4.89676257e+00	2.98351806e+01
-7.14854340e+00	3.06403446e+01
-2.04506818e+01	3.11969549e+01
-4.22615495e+01	2.07508180e+01
-5.90218029e+01	-1.03229868e+01
-3.36817336e+01	-4.98546470e+01
8.20059058e+00	-5.59177653e+01
3.31698044e+01	-2.25405434e+01
1.54820982e+01	3.28608706e+00
-5.53588734e+00	-7.22117310e+00
1.08923223e+01	-3.21737134e+01
4.91335607e+01	-1.80764882e+01
5.32800761e+01	3.57783186e+01
4.94168500e+00	6.65362324e+01
-5.15306876e+01	3.76172133e+01
-5.95561442e+01	-1.82312716e+01
-1.76634750e+01	-5.64236121e+01
2.96156062e+01	-4.64239336e+01
4.98502403e+01	-9.13033435e+00
4.11777144e+01	2.46985757e+01
1.99096382e+01	3.84703545e+01
-2.89065412e+00	3.73087791e+01
-1.09174208e+01	2.98435367e+01
-1.16952717e+01	2.80996700e+01
-2.23891008e+01	3.56919955e+01
-5.25650034e+01	3.55253843e+01
-8.32528174e+01	1.79774084e+00
-7.67953937e+01	-5.96006977e+01
-2.46753995e+01	-1.02297916e+02
4.23295945e+01	-8.85990312e+01
6.92286956e+01	-4.09324856e+01
6.00763318e+01	-4.33405813e+00
5.03213614e+01	9.88548355e+00
4.89723597e+01	2.25270831e+01
4.38939955e+01	4.65817476e+01
1.27794116e+01	6.64848861e+01
-2.23781270e+01	6.12028585e+01
-4.85860850e+01	4.32792221e+01
-6.35127192e+01	1.79227380e+01
-7.34041821e+01	-1.68327011e+01
-5.60134446e+01	-6.62798372e+01
4.06797638e+00	-9.24479411e+01
6.77651191e+01	-6.09939618e+01
7.83361697e+01	6.80796960e+00
3.32055537e+01	4.33374087e+01
-5.15602243e+00	2.29421594e+01
1.37346984e+01	-8.43905336e-01
4.29254344e+01	2.69145305e+01
1.24647212e+01	8.19137403e+01
-6.75829419e+01	8.29396937e+01
-1.16479585e+02	3.74453462e+00
-8.21498551e+01	-7.99941919e+01
-5.15883971e+00	-9.73295539e+01
3.82821047e+01	-6.40627092e+01
4.60616784e+01	-3.65650677e+01
5.32399172e+01	-2.86040039e+01
7.79791775e+01	-2.62190348e+00
7.91721292e+01	4.75998227e+01
3.86674116e+01	8.72847988e+01
-1.24370230e+01	8.83639456e+01
-4.37491632e+01	6.83281078e+01
-6.91669357e+01	5.14068465e+01
-9.99130368e+01	2.26233584e+01
-1.15972905e+02	-4.51016898e+01
-6.76939105e+01	-1.17354468e+02
2.93401436e+01	-1.28826371e+02
9.20347453e+01	-6.54084527e+01
8.20187980e+01	7.55609699e+00
3.86581558e+01	2.62164356e+01
2.80338411e+01	1.32915044e+01
4.48869309e+01	2.50087322e+01
3.03398216e+01	6.49018592e+01
-2.82802752e+01	7.79061065e+01
-7.93290508e+01	3.31997680e+01
-6.99388338e+01	-3.27275259e+01
-2.47006762e+01	-6.25152539e+01
1.50594908e+01	-5.61773206e+01
3.66375835e+01	-3.72898562e+01
5.34358617e+01	-1.45210768e+01
5.64214878e+01	2.12191817e+01
3.14170898e+01	5.49847001e+01
-1.23033142e+01	5.34312839e+01
-3.08527331e+01	2.62651165e+01
-1.99947543e+01	1.12270768e+01
-1.67652739e+01	2.41775932e+01
-4.90001286e+01	2.25063537e+01
-6.96915538e+01	-2.39091148e+01
-3.14302455e+01	-8.12193406e+01
4.38708255e+01	-7.77221772e+01
7.95500327e+01	-1.34272658e+01
4.69669427e+01	4.44266242e+01
-4.78630187e+00	4.45033080e+01
-1.35061482e+01	1.33906503e+01
1.97240971e+00	8.31990088e+00
-2.08400038e+00	3.05003626e+01
-3.41301787e+01	3.10062450e+01
-5.15562241e+01	-1.76149043e+00
-3.72208454e+01	-3.11560002e+01
-1.53270446e+01	-3.49182694e+01
-1.07105713e+01	-3.69317439e+01
5.52780223e+00	-5.26793923e+01
4.84741094e+01	-5.41993190e+01
8.16778193e+01	-1.27989163e+01
6.37145093e+01	4.77457321e+01
6.54328262e+00	6.11180273e+01
-2.16605113e+01	2.52703512e+01
2.15703250e+00	4.00034567e+00
2.05224401e+01	3.22055504e+01
-1.41789245e+01	6.42288389e+01
-7.49439010e+01	3.97666021e+01
-8.34900154e+01	-3.24630964e+01
-2.74876362e+01	-7.43644666e+01
2.53866770e+01	-5.27154308e+01
2.86919324e+01	-1.17352997e+01
9.82664171e+00	-6.11301874e+00
1.10335238e+01	-2.19878903e+01
3.48034067e+01	-1.71747475e+01
4.33810014e+01	1.49825133e+01
2.18818991e+01	4.08588871e+01
-7.63630421e+00	3.80340337e+01
-2.28306398e+01	2.37251688e+01
-3.26903341e+01	1.52648761e+01
-4.48569299e+01	-6.91554037e+00
-3.45436815e+01	-4.31907954e+01
1.13633090e+01	-6.32995893e+01
5.84335655e+01	-3.46717503e+01
5.66580474e+01	1.88620271e+01
1.64918764e+01	4.15167577e+01
-1.01141963e+01	1.81204350e+01
6.94187905e+00	-1.62891334e+00
2.61268799e+01	1.59340764e+01
1.17463605e+01	4.82038956e+01
-2.97213793e+01	5.15469455e+01
-5.70774224e+01	1.74240904e+01
-5.12081598e+01	-1.64241876e+01
-2.83989487e+01	-3.37060316e+01
-1.39163479e+01	-3.75668462e+01
1.14639947e+00	-3.74394609e+01
2.03289940e+01	-3.27756993e+01
3.09719549e+01	-1.78244618e+01
2.64438408e+01	-4.31264600e+00
2.60059851e+01	-1.73575028e-01
3.36452398e+01	6.70685908e+00
3.57290753e+01	3.21452673e+01
7.42353896e+00	5.70295599e+01
-3.93444499e+01	4.84102870e+01
-5.79624506e+01	2.13446680e+00
-2.91552525e+01	-3.43307697e+01
5.68963745e+00	-2.53278233e+01
7.29067149e+00	1.59276692e+00
-1.61067764e+01	1.55088486e+00
-2.01891767e+01	-2.58682325e+01
1.16947268e+01	-4.22758797e+01
4.43602034e+01	-1.71675309e+01
3.96616391e+01	2.23658314e+01
1.32845012e+01	4.30756357e+01
-1.41631669e+01	3.58169802e+01
-3.14030069e+01	2.27453259e+01
-4.08466440e+01	2.09352367e+00
-3.77768202e+01	-2.61896583e+01
-1.36326479e+01	-5.02651594e+01
2.44161488e+01	-4.43132595e+01
4.33633262e+01	-1.24106312e+01
3.00306238e+01	1.07796289e+01
1.85731027e+01	9.81071165e+00
2.55432587e+01	8.75276935e+00
2.83518844e+01	3.18620278e+01
4.30294686e+00	5.74901491e+01
-4.54799336e+01	5.40148440e+01
-7.50242084e+01	6.44133313e+00
-5.54207138e+01	-4.28727545e+01
-1.55972478e+01	-5.95775520e+01
1.57294657e+01	-4.62380374e+01
2.65113605e+01	-2.83465293e+01
3.40819074e+01	-2.22911262e+01
4.44461224e+01	-6.20888508e+00
4.42038139e+01	1.75849421e+01
3.37490937e+01	3.83040525e+01
1.11261231e+01	4.96859671e+01
-1.41606478e+01	5.39996285e+01
-4.44399218e+01	4.67673809e+01
-7.55276931e+01	1.40053548e+01
-7.25720559e+01	-3.97326390e+01
-2.60158727e+01	-7.79252685e+01
3.11642573e+01	-6.40085254e+01
5.39775823e+01	-1.97450623e+01
3.46012072e+01	9.63463096e+00
1.77641219e+01	7.95897614e+00
2.53223814e+01	4.93340449e+00
3.56656539e+01	2.41125860e+01
1.47613683e+01	5.75291806e+01
-2.87750489e+01	5.66891475e+01
-5.95808013e+01	1.82284024e+01
-5.25804286e+01	-1.88952168e+01
-2.42873810e+01	-3.34307284e+01
-1.26816124e+01	-3.39084826e+01
9.74188300e-01	-3.69816105e+01
1.96042404e+01	-3.58005487e+01
3.73607920e+01	-1.92753036e+01
3.65064236e+01	6.48050479e+00
2.23688301e+01	1.79141773e+01
1.82893724e+01	1.38886147e+01
2.01971285e+01	2.13131742e+01
1.18044731e+01	4.50725051e+01
-3.04065350e+01	5.40087328e+01
-6.80823728e+01	1.82586779e+01
-5.81492245e+01	-3.84476334e+01
-8.84914721e+00	-6.35764387e+01
3.37217916e+01	-3.96696423e+01
3.35493664e+01	-3.40782596e+00
1.37181184e+01	3.22249569e+00
1.23967198e+01	-8.94755623e+00
3.56085394e+01	-4.79441610e+00
4.21812514e+01	2.74545526e+01
1.59155074e+01	5.45619246e+01
-2.93763918e+01	5.05540366e+01
-5.01993087e+01	2.03408953e+01
-4.38512575e+01	-9.41233973e+00
-2.88704006e+01	-1.88070644e+01
-1.61494687e+01	-2.65412287e+01
-7.00403813e+00	-2.90399045e+01
8.37145558e+00	-2.68047421e+01
1.91408669e+01	-1.74798146e+01
1.65528777e+01	-4.63881734e+00
1.23337486e+01	-2.38771987e+00
1.39143274e+01	1.26256902e+00
1.59520564e+01	8.70986078e+00
4.94009352e+00	2.10987914e+01
-1.46822285e+01	1.83747492e+01
-2.95185794e+01	-3.83272643e+00
-1.49766843e+01	-2.97903440e+01
1.56505789e+01	-3.01773389e+01
3.94311796e+01	-7.90352681e+00
3.12554878e+01	2.18311340e+01
4.10133160e+00	2.88843932e+01
-8.20556445e+00	1.62351342e+01
-4.97640128e+00	3.91035989e+00
5.79029476e+00	1.13463833e+01
-1.03110918e+00	2.49126300e+01
-2.23602853e+01	2.52068933e+01
-4.00977446e+01	5.18012567e+00
-3.31586134e+01	-2.34660302e+01
-8.81385858e+00	-3.15586800e+01
7.94114338e+00	-2.27478680e+01
1.06250012e+01	-9.99634432e+00
3.45194618e+00	-7.87839297e+00
6.18047200e+00	-1.32457385e+01
1.78292744e+01	-1.06848416e+01
2.42380015e+01	6.54096191e-01
2.07284052e+01	1.53571726e+01
5.17634329e+00	2.24784649e+01
-5.41122208e+00	2.50565777e+01
-1.94525761e+01	1.85237287e+01
-2.61744247e+01	1.09391358e+00
-2.00205119e+01	-1.66775023e+01
-9.46524074e-01	-2.45401059e+01
1.35529675e+01	-1.37619572e+01
1.32663233e+01	5.87775855e-01
6.42676360e-03	2.57486473e+00
-2.02558946e-02	-1.18500894e+01
2.05990977e+01	-1.46874517e+01
3.59133848e+01	4.84129928e+00
2.37990573e+01	3.69521561e+01
-1.26903456e+01	4.70407304e+01
-4.05623193e+01	2.39921291e+01
-4.36900083e+01	-9.93491759e+00
-2.37311556e+01	-2.47403305e+01
-8.21549415e+00	-2.80641046e+01
-1.49634234e+00	-2.93488502e+01
8.63743158e+00	-2.94839312e+01
2.48293048e+01	-2.34650396e+01
3.78979756e+01	-8.36734331e+00
3.56172640e+01	9.51982175e+00
2.97336397e+01	2.42459947e+01
1.47671824e+01	4.02160535e+01
-7.98371064e+00	4.50131961e+01
-3.57665290e+01	3.37159470e+01
-4.87709711e+01	4.72511311e+00
-3.54895224e+01	-2.40199637e+01
-1.12383869e+01	-3.21018581e+01
4.50437424e+00	-2.19708854e+01
1.60717857e+00	-1.72317295e+01
3.15473094e+00	-2.15694547e+01
2.17844402e+01	-2.60871415e+01
4.38803508e+01	-7.49375611e+00
4.19276543e+01	2.54334452e+01
1.43900078e+01	4.75011252e+01
-1.69412099e+01	3.97125444e+01
-3.28890259e+01	1.65417521e+01
-2.84270018e+01	-4.04572078e+00
-2.07133286e+01	-1.19009709e+01
-1.52331277e+01	-1.48608402e+01
-8.42183023e+00	-2.06729436e+01
5.02307564e-01	-1.83473402e+01
9.47980292e+00	-1.73366630e+01
1.42664409e+01	-1.19847722e+01
2.17355500e+01	-4.27063306e+00
2.67101270e+01	6.91410596e+00
2.13929638e+01	2.42028066e+01
-2.75783125e+00	3.19375366e+01
-2.57416026e+01	1.91844310e+01
-2.94062013e+01	-4.73507154e+00
-1.15384244e+01	-1.93999312e+01
3.70599419e+00	-1.71743348e+01
5.75739226e+00	-4.22658325e+00
2.33082202e+00	-4.19609204e+00
4.36863203e+00	-6.37424715e+00
1.61179046e+01	-7.58516971e+00
2.50803955e+01	4.19739991e+00
1.90413728e+01	2.41739140e+01
-3.43206503e+00	3.54874468e+01
-2.78222915e+01	2.80501759e+01
-4.07068263e+01	2.66021381e+00
-3.06832273e+01	-2.08217640e+01
-1.05072603e+01	-3.09025373e+01
5.97515409e+00	-2.49253042e+01
1.20263603e+01	-1.56372394e+01
1.23067663e+01	-1.60164209e+01
2.24426900e+01	-1.50616627e+01
3.32490582e+01	-2.03460649e+00
3.78543012e+01	1.93990198e+01
1.53915292e+01	4.06215948e+01
-1.07309629e+01	4.29569803e+01
-3.11281023e+01	2.32781892e+01
-3.60471383e+01	1.13195605e+00
-2.83919756e+01	-1.31563159e+01
-1.51962151e+01	-2.28080075e+01
-3.14434337e+00	-2.95261685e+01
1.38000705e+01	-2.22097462e+01
2.14950388e+01	-7.42159631e+00
1.59999087e+01	2.77039708e+00
1.16659377e+01	3.06711441e+00
1.37875344e+01	4.23236308e+00
1.65418768e+01	1.81352331e+01
2.90798814e-01	3.34143197e+01
-3.20827355e+01	2.94257156e+01
-4.59525596e+01	-4.73392124e+00
-2.64716621e+01	-3.49662964e+01
1.02885979e+01	-3.40026813e+01
2.37767797e+01	-1.33409199e+01
1.18186390e+01	8.05342282e-01
4.18417280e+00	-7.16158619e+00
1.68522844e+01	-1.26545874e+01
3.26347048e+01	7.72274622e-01
2.48173582e+01	3.12403895e+01
-3.20706688e+00	4.09798425e+01
-2.55802586e+01	2.56232457e+01
-2.82234035e+01	8.77063312e+00
-2.29799091e+01	-1.61345982e-01
-2.35204080e+01	-3.91980457e+00
-2.17813135e+01	-1.76743808e+01
-1.09703533e+01	-2.96754910e+01
7.46928079e+00	-2.52721075e+01
1.25167571e+01	-1.38919125e+01
6.53236634e+00	-1.10344927e+01
1.54380779e+01	-2.02498671e+01
3.35419246e+01	-1.50916319e+01
3.80545939e+01	1.30390685e+01
2.14375160e+01	4.03127339e+01
-1.41092687e+01	3.86805171e+01
-2.63655454e+01	1.06416102e+01
-1.44792571e+01	-9.76099985e+00
-3.92582137e-01	-1.49717856e+00
-6.47919437e+00	8.81905212e+00
-1.75046740e+01	1.81576526e+00
-1.42437461e+01	-1.74497173e+01
4.29947542e+00	-2.00372014e+01
1.87864165e+01	-9.84048134e+00
1.38114679e+01	7.46350849e+00
2.35384240e+00	1.30166248e+01
-2.02282843e+00	8.89286557e+00
-5.63304217e+00	8.57954590e+00
-1.21134700e+01	3.11104211e+00
-1.37335646e+01	-2.59941205e+00
-6.76194880e+00	-1.16825666e+01
1.81001813e+00	-8.38734195e+00
2.38398465e+00	-2.87038736e+00
-1.54205460e+00	-3.28768285e+00
-1.43101642e+00	-1.34159256e+01
1.54349066e+01	-1.38323750e+01
2.64010270e+01	2.44443860e+00
1.61035413e+01	2.33941512e+01
-8.76696534e+00	2.78441134e+01
-2.43883007e+01	9.55352456e+00
-1.77808574e+01	-8.16836551e+00
-4.03368250e+00	-9.84696138e+00
-1.32964682e+00	-4.78345046e+00
-5.94431728e+00	-6.13864397e+00
-2.05303526e+00	-1.19622533e+01
6.71175062e+00	-1.27449494e+01
1.39463214e+01	-8.06513278e+00
1.51023345e+01	4.91254905e-01
1.30718918e+01	7.20160293e+00
1.00707388e+01	1.54463760e+01
-1.15539993e-01	2.26922877e+01
-1.86948203e+01	1.85135095e+01
-2.46213183e+01	-4.79081169e-01
-1.41130929e+01	-1.53022325e+01
-9.84148592e-01	-1.34946668e+01
1.69213214e+00	-4.11132534e+00
-4.14387530e+00	-1.90140145e+00
-7.04434713e+00	-1.48761390e+01
8.64214510e+00	-2.29177964e+01
2.48957617e+01	-1.06910341e+01
2.81166696e+01	1.19289325e+01
1.01178282e+01	2.93043640e+01
-8.58982280e+00	2.36190107e+01
-1.83209245e+01	1.25021357e+01
-1.86416819e+01	1.56631338e+00
-1.60957408e+01	-4.18447168e+00
-1.48797948e+01	-1.05949254e+01
-8.51545211e+00	-1.43797315e+01
4.90695439e-01	-1.92178452e+01
7.32344716e+00	-1.67710009e+01
1.74159826e+01	-1.64024383e+01
2.77539455e+01	-4.58934552e+00
2.94848287e+01	1.57978536e+01
1.49924269e+01	3.29231849e+01
-1.08734545e+01	3.56268750e+01
-2.87188918e+01	2.02502486e+01
-2.98528714e+01	4.46659331e-01
-2.07365167e+01	-1.11940386e+01
-1.62954489e+01	-1.40884169e+01
-1.14908013e+01	-1.92556770e+01
-5.33690648e+00	-2.78246932e+01
1.18307067e+01	-2.99558025e+01
2.99123011e+01	-2.04741608e+01
3.36856558e+01	-4.07885969e+00
3.15466881e+01	1.81381616e+01
1.69021011e+01	3.03882429e+01
-1.81748882e+00	3.27361090e+01
-1.90839514e+01	2.35640391e+01
-2.47595205e+01	4.91539001e+00
-1.73994785e+01	-5.87355334e+00
-4.88348097e+00	-1.06051294e+01
-2.25682355e+00	-6.63744054e+00
-7.20908635e+00	-8.07717129e+00
-5.63526340e+00	-1.52678428e+01
9.56893373e+00	-1.84950200e+01
2.47657962e+01	-4.90859623e+00
1.94032305e+01	1.56315517e+01
1.58795370e+00	2.08911165e+01
-1.60078160e+01	1.33523677e+01
-1.59014301e+01	-1.61211205e+00
-4.50947783e+00	-6.15672837e+00
-2.15192451e+00	-4.16503796e+00
-4.92941030e+00	-4.05836665e+00
-3.73967587e+00	-1.02997380e+01
4.93541237e+00	-1.33787912e+01
1.30205575e+01	-9.50681224e+00
1.47536548e+01	-5.02744847e-01
1.31328630e+01	8.20219018e+00
9.53975983e+00	1.41169584e+01
1.48868793e+00	1.76437557e+01
-1.00690515e+01	1.82040303e+01
-1.90667981e+01	7.46597514e+00
-1.71875606e+01	-8.78707340e+00
-6.32762903e+00	-1.48728710e+01
1.87772498e+00	-7.75012569e+00
-1.34661907e-01	-6.10950486e-01
-6.73799476e+00	-5.04062962e+00
-6.02393422e-01	-1.47027760e+01
1.62449788e+01	-1.44360871e+01
2.28054181e+01	3.94462059e-01
1.42627094e+01	1.91234016e+01
-1.00797711e+00	2.06689935e+01
-1.36740601e+01	1.13626333e+01
-1.52477902e+01	1.22010054e+00
-8.19882186e+00	-6.95039326e+00
-6.90273002e+00	-6.33847654e+00
-3.17023973e+00	-5.97015376e+00
-6.76212894e-01	-7.50749761e+00
2.32348341e+00	-8.34290892e+00
7.58193835e+00	-7.71399657e+00
1.31178522e+01	-3.71221461e+00
1.49295455e+01	7.61913764e+00
8.12948870e+00	1.64996305e+01
-5.65847448e+00	2.00318382e+01
-1.54594770e+01	1.01093605e+01
-1.69232316e+01	-1.85419567e+00
-1.08995429e+01	-9.15436874e+00
-3.19447514e+00	-9.81504261e+00
-2.34072650e+00	-8.98717937e+00
-2.97718457e+00	-9.63492559e+00
3.67406993e+00	-1.34665297e+01
1.27601851e+01	-1.19646122e+01
1.93276672e+01	-3.46194992e+00
1.84596981e+01	9.85025740e+00
1.01148108e+01	1.92251699e+01
-1.58897961e+00	2.08481908e+01
-1.22059830e+01	1.70670828e+01
-1.52361099e+01	7.43432301e+00
-1.45146060e+01	-1.70262746e+00
-8.49198585e+00	-5.39743451e+00
-4.20448114e+00	-5.34497647e+00
-7.18227934e+00	-4.59237852e+00
-8.01180692e+00	-7.74433710e+00
1.08169895e+00	-1.49856153e+01
1.13946163e+01	-1.52155126e+01
2.00638167e+01	-2.13184451e+00
1.34227949e+01	1.08503162e+01
2.63942133e+00	1.58813965e+01
-7.57725360e+00	1.25048644e+01
-7.69254237e+00	3.59567916e+00
-6.64368322e+00	2.67423475e+00
-8.26266101e+00	4.19034352e+00
-1.23786271e+01	2.65520791e+00
-1.49427548e+01	-8.78985225e+00
-7.10259642e+00	-1.79231535e+01
5.11468062e+00	-1.86970596e+01
1.54276324e+01	-1.04945821e+01
1.81331147e+01	-8.23072685e-01
1.36901221e+01	7.51958748e+00
5.15798140e+00	8.82907536e+00
8.60476165e-01	8.81689309e+00
-2.03147630e+00	8.11691302e+00
-4.59859996e+00	6.01010996e+00
-6.56997285e+00	4.98703512e+00
-7.25888723e+00	-1.13060778e-01
-7.58222300e+00	-4.82301365e+00
-6.21276247e+00	-9.49051393e+00
1.28052652e+00	-1.29190587e+01
1.17094801e+01	-1.06508218e+01
1.80955031e+01	-4.03260731e-01
1.30169577e+01	1.39895799e+01
1.65891889e-01	1.76830993e+01
-8.13424519e+00	1.38918646e+01
-1.22797030e+01	3.13319303e+00
-8.33814754e+00	-8.62078043e-01
-6.25861783e+00	7.17418345e-01
-1.14764962e+01	-3.31673576e+00
-1.15361813e+01	-1.05639561e+01
-3.67434043e+00	-1.89244304e+01
1.06971768e+01	-1.67467979e+01
2.08079563e+01	-5.71546830e+00
1.79115195e+01	8.54226671e+00
6.06507759e+00	1.55065571e+01
-3.75044698e+00	1.14346187e+01
-6.58917092e+00	5.38616018e+00
-5.32315933e+00	3.88342809e+00
-7.20577897e+00	1.74718963e+00
-6.83087330e+00	-6.59960649e-01
-7.95801729e+00	-3.13079462e+00
-3.13339378e+00	-7.42909394e+00
2.89651972e-01	-8.72875101e+00
4.43608284e+00	-8.31554746e+00
1.24435820e+01	-5.36685642e+00
1.38888591e+01	5.00432524e+00
9.22368014e+00	1.61852677e+01
-5.67955848e+00	1.80375519e+01
-1.41979713e+01	8.56920673e+00
-1.14752612e+01	-7.46672124e-01
-7.45335181e+00	-5.52374411e+00
-4.23205957e+00	-3.77539268e+00
-7.55085918e+00	-5.34643819e+00
-7.22586972e+00	-1.33970953e+01
6.56507569e+00	-1.73160107e+01
1.49405471e+01	-1.56359756e+01
2.25489521e+01	3.82160318e+00
1.46973989e+01	1.43932966e+01
4.04210575e+00	1.86918386e+01
-4.29521122e+00	1.50244410e+01
-8.77477521e+00	1.14024590e+01
-1.17455467e+01	5.64747091e+00
-1.41698457e+01	8.04823832e-01
-9.48485847e+00	-1.38916772e+00
-1.10068925e+01	-8.85685628e+00
-7.48284812e+00	-1.06247366e+01
-7.43889010e-01	-1.76634437e+01
1.14184362e+01	-1.66095523e+01
2.12007295e+01	-7.61820412e+00
1.99462501e+01	8.46480177e+00
9.28859151e+00	1.86275258e+01
-2.28172394e+00	1.72926991e+01
-1.07902815e+01	8.81993884e+00
-1.06696757e+01	2.48564132e+00
-8.97960689e+00	2.56461555e+00
-1.01034659e+01	-3.25213072e-01
-1.07253978e+01	-7.94048717e+00
-3.05050511e+00	-1.42903586e+01
4.07180964e+00	-1.47513070e+01
1.20971761e+01	-5.57993756e+00
1.35433395e+01	-2.86565317e-01
9.53511997e+00	7.22868841e+00
3.96328625e+00	9.18337590e+00
-7.31027531e-01	9.57362872e+00
-6.56463795e+00	6.27765419e+00
-8.02399752e+00	2.64298875e+00
-6.30162697e+00	2.88054271e-01
-3.90627583e+00	4.20396700e-01
-6.07116974e+00	-2.97890331e+00
-9.10347876e+00	-7.01895101e+00
-2.04202903e-01	-1.29840803e+01
1.07130337e+01	-1.19460624e+01
1.25003522e+01	-1.71891513e+00
1.18135436e+01	9.47952854e+00
1.01859583e+00	1.19206230e+01
-3.95455078e+00	7.90480729e+00
-7.09826383e+00	9.31525655e-01
-3.27615092e-01	-2.15819596e+00
-4.90411087e-01	-1.64032035e-01
-3.42342414e+00	1.00318101e+00
-6.15435595e+00	-9.99955725e-01
-6.26899596e+00	-7.25617133e+00
6.35231151e-01	-9.40427790e+00
7.87627861e+00	-7.27854636e+00
8.58179814e+00	-2.06723521e+00
6.50644801e+00	5.85960099e+00
7.18964138e-02	8.29871246e+00
-1.62965554e+00	3.44693458e+00
-1.79045645e+00	1.81798238e+00
1.03254145e+00	1.07530856e+00
-3.48286413e+00	5.37085824e+00
-8.11746719e+00	1.43815666e+00
-9.26973443e+00	-4.52631637e+00
-2.22005462e+00	-7.49019844e+00
3.20006488e+00	-8.26912607e+00
6.20571678e+00	-3.68112310e+00
8.66728200e+00	1.03667748e+00
4.84249138e+00	2.18243936e+00
2.26213571e+00	7.64865452e+00
-2.66775769e+00	7.19558323e+00
-8.17310720e+00	3.35470793e+00
-5.98446964e+00	-3.40232102e+00
-2.69024279e-01	-1.86929242e+00
-1.90424914e+00	9.22871514e-01
-5.33022659e+00	5.49110252e-01
-7.31329493e+00	-8.05934136e+00
-3.66745288e-01	-1.58913259e+01
1.16733291e+01	-1.07466523e+01
1.78266465e+01	3.61224580e+00
9.55674261e+00	1.35761094e+01
-1.71045238e+00	1.15856830e+01
-5.83618149e+00	5.90475099e+00
-2.30071537e+00	3.85191790e+00
-3.74302864e+00	6.09150386e+00
-9.87318671e+00	4.82010717e+00
-1.53504535e+01	-6.19954451e+00
-9.86168467e+00	-1.42497729e+01
1.68701694e+00	-1.56120623e+01
6.64019637e+00	-1.02214478e+01
9.09790156e+00	-5.44340965e+00
1.09772287e+01	-2.49416536e+00
1.25094638e+01	3.95316081e+00
9.41989506e+00	1.04027940e+01
7.13542695e-01	1.30956186e+01
-6.74316959e+00	7.48352093e+00
-4.19785218e+00	6.49308481e-01
-2.96567504e+00	2.94785979e+00
-6.72859301e+00	7.56206147e+00
-1.05457480e+01	2.88292934e+00
-1.16058810e+01	-9.16038153e+00
-1.24251445e-01	-1.57912717e+01
1.27140906e+01	-1.00205187e+01
1.42829414e+01	2.10246196e+00
5.04206185e+00	7.75943170e+00
6.56972370e-01	5.31264127e+00
3.06199062e-01	1.46977991e+00
2.29712354e+00	5.03117428e+00
-1.17513389e+00	9.02317041e+00
-1.00815055e+01	5.68380425e+00
-1.35733899e+01	-9.39625615e-01
-9.87891495e+00	-9.50366392e+00
-3.58335092e+00	-1.10182890e+01
3.61426259e+00	-9.94960611e+00
9.14590245e+00	-7.82758836e+00
1.36086131e+01	-2.78879405e+00
9.54200108e+00	3.81035165e+00
4.66735829e+00	9.25505134e+00
-1.88984022e+00	9.03190794e+00
-3.86293975e+00	5.52622971e+00
-4.07677380e+00	2.92328070e+00
-3.67918720e+00	5.13003892e+00
-7.93079329e+00	3.36237732e+00
-1.09855637e+01	-4.02655295e+00
-6.00977844e+00	-1.22248120e+01
4.66038461e+00	-1.26217061e+01
9.68833666e+00	-5.54895606e+00
9.79968122e+00	2.61766425e+00
5.65226057e+00	6.18182536e+00
1.63235761e+00	4.46750769e+00
5.11593324e-01	4.30724241e+00
-3.05037641e-01	4.49883690e+00
-5.80241384e+00	6.05943298e+00
-5.64367763e+00	1.89192748e+00
-6.54115371e+00	-2.87257237e+00
-5.65592733e+00	-6.31254703e+00
3.55057126e-01	-9.15873838e+00
4.92938264e+00	-6.98389134e+00
9.66816421e+00	-3.90310926e+00
9.34693336e+00	3.92292185e+00
4.00967338e+00	8.92557230e+00
-3.98280477e+00	7.93039018e+00
-6.76493744e+00	4.33637462e+00
-3.77708449e+00	-5.39904074e-01
-6.97359428e-01	-4.46882445e-01
-2.76079338e+00	1.11415128e+00
-6.05929646e+00	-1.55875476e+00
-5.71909316e+00	-6.29671515e+00
-1.17339303e-01	-1.10029908e+01
9.12431127e+00	-8.04927317e+00
9.99269948e+00	-9.85643918e-01
7.45356240e+00	6.49737072e+00
2.96669388e+00	7.92689296e+00
-6.00239039e-01	8.75641359e+00
-3.13374188e+00	6.42822125e+00
-2.49446202e+00	3.71503925e+00
-5.22325748e+00	1.07854966e+00
-7.11692502e+00	-6.77327729e-01
-6.51218551e+00	-6.30378267e+00
-3.76602915e+00	-8.94817769e+00
4.07955668e+00	-9.59971525e+00
4.76550897e+00	-6.26765403e+00
8.92336332e+00	-1.64370574e+00
9.41620895e+00	4.38799887e+00
4.62842920e+00	6.91125009e+00
2.03881855e+00	7.41415682e+00
-1.02051987e-01	5.72685434e+00
-3.13432476e+00	5.54489111e+00
-5.15828734e+00	3.00343940e+00
-5.95624293e+00	1.09452057e+00
-7.79564181e+00	-1.13418248e+00
-6.10747463e+00	-5.95635540e+00
-1.00953021e+00	-1.26935799e+01
8.09008516e+00	-1.10197183e+01
1.09199229e+01	-4.91672641e+00
1.09282103e+01	2.77482990e+00
2.25738719e+00	6.06626353e+00
-1.61788006e+00	4.79902237e+00
-8.00504831e-01	2.48167551e-01
1.57486886e+00	3.76574785e+00
-2.39690581e-01	7.05943069e+00
-6.39705888e+00	4.66050059e+00
-8.92327032e+00	8.24599544e-01
-4.47658107e+00	-9.13190048e+00
2.26864909e-01	-1.14555823e+01
6.25824654e+00	-6.28831801e+00
6.00442441e+00	3.53810259e-01
3.85451832e+00	9.62559641e-02
5.80152191e+00	1.00480283e+00
2.55921413e+00	5.88378884e+00
-2.11600815e-01	5.08202467e+00
-2.63170130e+00	3.31400290e+00
-1.63584209e+00	3.33630388e+00
-4.13496995e+00	2.69172916e+00
-7.52675225e+00	1.18118875e+00
-7.28542262e+00	-2.94463706e+00
-3.26194300e+00	-9.61836431e+00
1.99273650e+00	-9.24518438e+00
8.84955098e+00	-4.73273310e+00
6.54625062e+00	1.53129926e+00
1.72282784e+00	3.13930358e+00
7.14754618e-01	1.64027947e+00
1.68951525e+00	2.31631017e-01
4.67423480e+00	2.23839460e+00
7.62706969e-01	6.22276487e+00
-3.91476244e+00	7.82862786e+00
-8.76371696e+00	-1.13534656e+00
-5.06729875e+00	-7.17626524e+00
8.42281220e-01	-7.66575253e+00
4.27808876e+00	-3.24150188e+00
3.50101903e+00	1.86980786e-01
7.03280722e-01	4.46896488e-01
1.37739093e+00	6.81352257e-01
2.16191459e+00	-8.17961507e-01
2.87097227e+00	7.93942745e-01
-9.40852599e-01	3.26105374e+00
-2.15735386e+00	4.79907850e+00
-4.84279576e+00	2.63827772e+00
-3.07742689e+00	-2.63625756e+00
-3.46984025e+00	-2.91309342e+00
4.41866706e-02	-8.11447882e+00
5.58624217e+00	-7.75766837e+00
9.25534614e+00	-1.32285801e+00
7.13710784e+00	3.01892628e+00
2.96936323e+00	7.73932500e+00
1.96704630e+00	8.80383849e+00
-1.54259965e+00	5.76847525e+00
-3.00143294e+00	6.00370780e+00
-6.20529019e+00	3.13226762e+00
-9.91731477e+00	1.22418318e+00
-8.58844464e+00	-6.28292719e+00
-3.35115143e+00	-8.42764316e+00
4.25779628e+00	-9.10972090e+00
7.55681371e+00	-6.29675088e+00
7.33267725e+00	5.78905604e-01
4.58792287e+00	3.20212028e+00
4.88145230e+00	4.38702562e+00
8.51352437e-02	5.68665067e+00
-2.85761722e-02	5.11216789e+00
-1.92853111e+00	7.30977131e+00
-6.12253475e+00	4.88301235e+00
-9.58989553e+00	1.49292298e+00
-8.02906451e+00	-3.99579609e+00
-5.25572666e+00	-9.94266503e+00
2.27811032e+00	-9.41406600e+00
6.06519456e+00	-4.85411470e+00
6.85785170e+00	-6.76893118e-01
5.98335010e+00	2.18635760e+00
1.32357062e+00	3.59644012e+00
2.27716264e+00	4.32901452e+00
1.52194876e+00	3.78308832e+00
-3.02334553e+00	6.59335077e+00
-6.68708752e+00	5.85302653e+00
-7.53073517e+00	2.73897918e+00
-6.87817413e+00	-4.53856757e+00
-2.85268689e+00	-6.54075247e+00
1.19472547e+00	-8.06697062e+00
4.06846536e+00	-4.61332493e+00
6.06493821e+00	-1.59709769e+00
6.15362327e+00	2.13481003e+00
4.82182886e+00	3.64794472e+00
2.09417162e+00	3.69754471e+00
-9.37982823e-01	4.98362693e+00
-2.64541560e+00	6.06654526e+00
-4.76350745e+00	4.27818116e+00
-7.05720453e+00	1.08642979e+00
-8.91880811e+00	-4.22343796e+00
-5.11783296e+00	-6.97208499e+00
2.28933390e+00	-9.07452843e+00
7.27414990e+00	-5.11893590e+00
6.45400978e+00	1.70379989e+00
3.99157874e+00	1.66195438e+00
2.05346552e+00	4.38916578e-01
1.55531721e+00	1.22961815e+00
4.15536803e+00	1.02764135e+00
2.37513957e+00	6.24626894e+00
-3.98529714e+00	8.62169560e+00
-6.87559998e+00	-2.64550699e-01
-5.40338160e+00	-2.06145206e+00
-9.04477814e-01	-5.52796675e+00
1.61801651e-01	-3.51084063e+00
2.54584077e+00	-2.32663887e+00
3.94059330e+00	-6.10163251e-02
2.38100488e+00	1.31380533e+00
1.28390497e+00	1.32761273e+00
-1.30759605e+00	1.42029905e+00
3.57881925e-01	1.00296126e+00
-2.18928952e+00	1.35932765e+00
-2.76187104e+00	8.38502553e-01
