Dangerplot_version	1.0
Number_of_points	1024
Sampling_frequency	1.00000000e+003
Transmitter_frequency	6.30000000e+007
Phi0	0
Phi1	0
PPM_reference	4.54308532e+000
Real_FID	Imag_FID	
6.68292597e+003	-5.48453003e+002
3.45992579e+003	2.58790371e+002
3.47561597e+003	-6.41363890e+002
2.46647144e+003	-8.35772071e+002
2.71784334e+003	-8.93192058e+002
1.37467677e+003	-5.45596213e+002
1.05336639e+003	-8.03084102e+002
2.72947580e+002	-7.49945515e+002
4.21378553e+002	-7.38027572e+002
-1.91688410e+002	-3.48261305e+002
-2.54397076e+002	-2.82467775e+002
-6.85936809e+002	-2.50287636e+002
-3.28288940e+002	-2.56536411e+002
-5.13895652e+002	1.32110140e+002
-5.36269066e+002	2.88998542e+002
-8.68485428e+002	3.08229673e+002
-5.42038947e+002	1.85455103e+002
-5.34478880e+002	3.63261770e+002
-3.40019541e+002	3.63983407e+002
-5.05007853e+002	4.57333294e+002
-3.24983532e+002	3.98692078e+002
-3.25058748e+002	3.74812204e+002
1.84151316e+001	2.28072859e+002
6.01546439e+001	2.62862376e+002
1.87565062e+002	2.14125003e+002
2.84499437e+000	1.55610477e+002
1.78695988e+002	-3.93081965e+001
1.67481709e+002	-1.82008682e+001
2.61371415e+002	-6.45177602e+001
1.07840132e+002	-6.93119988e+001
1.77762885e+002	-1.88233333e+002
1.29344785e+002	-1.82069085e+002
1.91753032e+002	-1.71110988e+002
3.27143649e+001	-9.13371421e+001
3.18875980e+001	-1.62586122e+002
-4.43257715e+001	-1.66222837e+002
8.61846103e+001	-1.82639287e+002
-5.41499292e+001	-7.41826731e+001
-5.77041370e+001	-1.07419145e+002
-1.50389951e+002	-1.33556538e+002
-5.40209296e+000	-1.53404558e+002
-4.69591452e+001	-2.76314190e+001
-5.50616851e+001	-7.10582398e+000
-1.63580274e+002	5.44036444e+000
-6.15972607e+001	-3.24037381e+001
-1.03054813e+002	2.35635364e+001
-5.80714011e+001	2.73776608e+001
-1.25969645e+002	5.86734374e+001
-4.84754857e+001	2.85323742e+001
-7.99489340e+001	6.26880820e+001
-3.01378185e+000	4.38943234e+001
-5.47051773e+001	8.81009007e+001
3.81114844e+000	6.19827428e+001
-1.42830744e+001	8.53569136e+001
4.55439473e+001	7.42636534e+001
-7.19005262e+000	1.16831296e+002
3.47250522e+001	6.95420831e+001
2.39481576e+000	6.17433627e+001
5.58696538e+001	3.93219484e+001
2.04938965e+001	6.50999458e+001
8.72253599e+001	2.49462554e+001
1.60895280e+001	4.20379420e+001
7.99809378e+001	1.29045592e+000
5.01190445e+001	1.80545857e+000
8.82070366e+001	-2.01332854e+001
3.85323805e+001	1.73114240e+001
7.60734621e+001	-1.99524036e+001
7.72068514e+000	-9.50844374e+000
6.34754379e+001	-4.63728998e+001
1.76009172e+000	-2.31810682e+001
3.31146011e+001	-5.52050047e+001
-4.57002484e+000	-3.36593850e+001
3.73520629e+001	-6.37948599e+001
-2.33848515e+001	-3.11183903e+001
2.16764621e+001	-4.12273043e+001
-3.89144949e+001	-2.55638142e+001
8.36185268e+000	-4.58453637e+001
-3.47069737e+001	-7.16533135e+000
-8.34606321e+000	-3.40246828e+001
-5.71877831e+001	-1.71044703e+000
-9.18573289e+000	-3.43674528e+001
-5.46297945e+001	-1.90154284e+001
-1.77703702e+001	-2.69642400e+001
-5.67884926e+001	-1.23217480e+000
-1.79272236e+001	7.87385936e+000
-4.46905461e+001	2.20613935e+001
2.22683481e+000	1.27938759e+001
-3.82405644e+001	3.93149034e+001
2.35743193e-001	9.79224049e+000
-2.96625884e+001	1.43197135e+001
5.81307307e+000	1.49322220e+001
-1.54793647e+001	3.84699226e+001
2.41795148e+001	4.25824091e+000
2.81477837e+000	4.06136849e+001
3.12517500e+001	1.20845277e+001
7.23816132e+000	4.38503591e+001
3.14891466e+001	2.30196894e+001
1.06659861e+001	2.42595953e+001
4.50552482e+001	-1.38190068e+001
5.76114842e+000	2.01917540e+001
3.47449172e+001	-4.00557769e+000
1.53552094e+001	1.77950214e+001
2.89569190e+001	-2.58582614e+001
8.84427177e+000	-1.53716097e+001
3.92177608e+001	-2.47875877e+001
2.50428862e+000	1.65205629e+000
2.53794282e+001	-2.45706983e+001
9.17929037e+000	-1.19746222e+001
1.57489026e+001	-3.32326064e+001
-2.04041299e+001	-5.08230853e+000
-2.07407841e+001	-2.09140254e+001
-1.79691343e+001	-1.43912945e+001
7.00231485e+000	-2.11379289e+001
-1.67170828e+001	-3.68341798e+000
-1.43796787e-001	-2.82119782e+001
-3.40988675e+001	-5.10365153e+000
-4.83776742e+000	-1.50236264e+001
-2.39775593e+001	5.72176175e+000
-6.50332922e+000	-9.30875577e+000
-2.73253649e+001	1.32918296e+001
-2.75269425e+000	-5.43343748e+000
-1.86642869e+001	1.05692202e+001
3.25401848e+000	1.42888783e+000
-7.67608329e+000	2.02321816e+001
7.81425915e+000	7.00543845e+000
-2.34240866e+001	1.66387864e+001
1.39518620e+001	-3.23974243e+000
-1.09253447e+001	3.06084918e+001
1.91938818e+001	2.60619900e+001
-1.16402274e+001	2.94281129e+001
1.79581716e+001	3.17628675e+000
-3.68997548e+000	2.80141562e+001
3.34581026e+001	-2.40910581e+000
-8.24177390e-001	2.88527739e+000
5.36751152e+000	-1.29623764e+001
8.29663432e+000	1.72656027e+001
1.85552419e+001	-1.28757243e+001
-1.43927394e+000	-2.22360975e+000
2.07841066e+001	-1.34253577e+001
6.43190190e+000	2.53571718e+000
2.31897844e+001	-3.59121019e+001
1.79523740e+001	-8.76685697e+000
5.94361026e-002	-2.65150343e+001
3.16511616e+000	-5.27590607e+000
4.47194658e+000	-2.63353440e+001
-2.52100638e+001	4.35261220e+000
1.90496525e+000	-1.85060247e+001
-2.16600895e+001	8.35085827e+000
2.58861115e-001	-1.86378039e+001
-1.89143014e+001	3.79524696e+000
-1.46492567e+000	-9.59205771e+000
-2.55739543e+001	7.82704359e-001
-2.56236853e+000	7.91226451e+000
-1.87185818e+001	1.42109839e+001
-3.29849620e+000	-1.93983216e+000
-6.83995368e+000	6.01005770e+000
1.31942160e+001	7.52856665e+000
-1.78265511e+001	1.27860609e+001
1.41126056e+000	5.37779167e+000
-6.15074347e+000	1.87312438e+001
1.25001124e+001	1.40152656e+001
-1.09512826e+001	1.99352276e+001
1.33280141e+001	3.07874209e+000
-1.34633987e+001	1.50955576e+001
1.89414934e+001	-6.59363259e+000
6.93298311e+000	5.99075178e+000
1.82168389e+001	-1.46992167e+001
1.40844861e+000	1.47290293e+001
6.60905377e+000	-2.30304361e+001
5.84258015e-001	2.91494840e+000
1.87661714e+001	3.47683898e+000
-7.07240068e-001	-3.08983233e+000
4.57432076e+000	-7.12264696e+000
-1.31937110e+001	1.26853301e+001
1.01442608e+001	-1.64109892e+001
1.41088258e+000	-4.49849207e+000
2.43928423e+001	-2.12676315e+001
-5.79157772e-001	4.91745434e+000
1.48772861e+001	-2.84678594e+001
-1.26409384e+001	6.57022891e+000
-4.81094724e+000	-1.15732869e+001
-1.49190389e+001	-9.70517102e-003
-9.18250452e+000	-8.55315187e-001
-1.88859093e+001	-1.14237327e+000
3.26942807e+000	-1.56839336e+001
-3.07984550e+001	5.51584223e+000
-1.38175869e+000	-1.30593205e+001
-5.54662254e+000	2.64254898e+001
1.70354958e+001	-4.25815492e+000
-6.65648997e-002	1.11476259e+001
8.27749321e+000	-6.80928380e+000
-2.75944839e+000	2.38599858e+001
8.19706786e+000	1.44850170e+000
-2.30374102e+001	1.93691966e+001
3.57764554e+000	-7.45107512e+000
-7.02182961e+000	1.66016811e+001
1.36048384e+001	1.61297963e+001
2.99105788e+000	1.32752860e+001
-6.15099057e+000	-2.60138583e+000
-5.06352476e+000	8.29399797e+000
7.83564494e+000	-2.68441992e+001
1.04809530e+000	-8.29014268e-001
1.15309872e+001	-6.37115448e+000
-1.46871444e+000	-2.43963914e+000
1.40616284e+001	3.12186694e+000
-7.39505077e+000	-6.98156520e+000
1.66128785e+001	-2.21606768e+001
6.36892831e+000	-8.25820315e+000
1.59525671e+001	-1.06130648e+001
-7.81193213e+000	1.81142452e+001
-1.75048659e+000	-2.83789516e+001
-7.19696806e+000	8.33212504e+000
5.39083742e-001	-1.27658421e+001
-1.68550702e+001	7.75563537e-001
1.52834712e+001	4.51473204e+000
1.51477555e-001	1.53505142e+001
-6.45881705e+000	-1.21509315e+001
-8.14319658e+000	2.29272333e+001
1.39350710e+001	5.69867974e+000
-1.11675603e+001	8.09904597e+000
2.40792023e+000	-1.71654054e+000
-2.20667614e+001	-2.51533235e+000
3.85283011e+000	3.85817150e+000
-2.30432070e+001	8.21667712e+000
1.77555128e+001	-1.80217181e+001
-1.99908212e+001	1.27356702e+000
7.86655310e-002	2.07255476e-001
-8.01565727e+000	-6.29384742e-001
6.57705484e+000	-1.11804619e+001
6.50006425e+000	8.78034494e+000
2.60770735e+000	4.69854890e-001
-1.23532110e+001	8.97390866e+000
-2.59344168e+000	-2.32927348e+001
9.27534577e+000	5.82895725e+000
1.66050334e+001	-1.64307207e+000
-2.67574808e-001	7.53374911e+000
1.06668684e+001	1.53529811e+001
-1.68099519e-001	1.54876955e+001
1.84295585e+001	-1.95771307e+001
-4.95067477e+000	1.12453026e+001
7.98832640e+000	-5.19144398e+000
6.23435433e+000	-1.66327306e+000
1.15179958e+001	1.19669637e+000
-2.67976124e+000	-2.25076393e+000
1.20896227e+001	-4.84738033e+000
-6.23808423e-002	7.05812782e+000
-1.11486727e+001	-6.23156892e+000
-1.59300329e+001	1.64921628e+001
5.40637118e+000	-1.51945590e+001
-8.45028231e+000	-9.02270546e+000
1.85199120e+000	-8.05178165e+000
-2.11057652e+001	1.71038399e+001
-1.09350407e+001	-1.76658971e+001
-1.13209073e+001	-1.74949396e+000
-3.69825793e+000	-6.86866263e+000
-1.28122781e+001	-6.61401102e+000
-2.68382049e+000	-4.50172598e+000
-7.61024451e+000	1.19743280e+001
1.00020815e+001	-1.16074934e+001
6.69834321e+000	3.36887072e+000
1.16489865e+001	5.42805298e+000
8.49988181e+000	1.85961488e+001
1.64497549e+001	-4.30441227e+000
3.11283089e+000	2.05079657e+001
5.01391998e+000	1.30634286e+001
6.14318303e+000	4.75208901e+000
7.84058542e+000	-1.19625769e+001
-7.20760688e+000	6.44684465e+000
-1.11964826e+000	-2.88204687e+000
8.30912324e-001	-1.24703295e+001
-7.47019429e+000	3.70877739e+000
-4.36685588e+000	9.43238023e-002
-1.32531119e+001	2.12088731e+000
6.54667329e+000	4.09960667e+000
4.74685968e+000	-6.13139440e+000
-2.25452539e+001	1.61855505e+000
-1.28282381e+000	-2.07920481e+001
3.39564288e+000	-6.24206068e+000
1.97041100e+001	-2.04707094e+001
1.55009794e-001	1.34033893e+001
5.06263345e+000	-3.80627023e+000
7.07362299e-001	9.90521559e+000
-7.52558271e+000	-1.15924984e+001
6.62562545e-001	6.16593308e+000
7.18744984e+000	3.05981890e+000
-7.07685925e+000	1.05505473e+000
8.66657614e+000	-1.40201320e+001
1.34059381e+001	1.79352938e+001
-8.69718956e+000	-1.12191731e+001
2.37206086e-001	1.42259180e+001
4.43337461e+000	6.32404653e-001
-8.16409090e+000	2.38717162e+001
-2.29942384e+001	-7.49214503e+000
-4.16858661e+000	1.34412946e+001
-1.35673628e+001	-9.66609211e+000
-4.31528280e+000	3.72470455e+000
4.78741439e+000	-1.11676950e+001
4.27453267e-001	1.07511812e+001
8.49814434e+000	4.38335402e+000
2.30810723e+000	1.38822746e+001
9.86651903e+000	-9.56033473e+000
9.16915482e+000	1.01964352e+001
1.27097588e+001	-2.20044155e+001
-1.51890273e+001	-2.94146855e+000
2.01310203e+001	-7.00075112e+000
-6.61401904e+000	3.64950591e+000
-9.68905114e+000	-1.24249658e+001
-7.09892479e+000	2.30174127e+000
9.90874737e-002	-5.98379549e+000
-1.44383472e+001	3.77372602e+000
2.43129756e+001	-1.80064517e+001
-3.49119570e-001	-3.20979139e+000
1.03330478e+001	-1.67293230e+001
-1.49804635e+001	2.05702058e+001
3.01347863e+000	-5.56996467e+000
-1.26854794e+001	1.84393429e+001
1.02535157e+001	2.02996932e+000
-9.63949908e+000	3.31919636e+000
1.96435031e+001	-1.10943393e+000
-3.25219578e+000	2.12356550e+001
2.70356255e+000	6.87167591e-001
-1.29639634e+001	8.42715259e+000
-4.51407980e+000	3.30616798e-001
2.79901182e+000	2.60680937e+000
5.56325715e+000	-3.00773714e+000
-9.15922237e+000	7.83977641e+000
-7.44572449e+000	-1.39032766e+001
1.84405378e+000	-3.69576596e+000
-3.32721368e+000	1.18849492e+000
-1.27989046e+001	-1.15335797e+001
1.80677118e+001	-1.18236532e+001
1.36729308e+001	-8.74068782e+000
2.20898623e+000	-6.05720669e+000
5.79173780e+000	7.58273479e+000
6.92075137e+000	-9.77073930e+000
1.49339540e+001	4.23290740e+000
1.58508740e+001	4.34773541e+000
-6.91458336e+000	2.55362595e+000
-1.18066851e+001	-2.54409985e+000
-3.49123497e+000	9.69010904e+000
-2.51241079e+000	-6.08635300e+000
-2.66577712e+000	1.02362532e+001
-1.49105764e+000	-1.60014539e+001
-2.34146468e+001	1.18945341e+001
-1.83338052e+001	-2.32531019e+000
7.06213321e-001	1.50550859e+001
-1.68081337e+000	-2.03691938e+000
-1.98167197e+000	-7.48177845e-001
-5.03441864e-001	-2.00900514e+001
3.82006091e+000	7.86931077e+000
2.68594123e+000	-7.58344571e+000
-8.10400010e+000	2.01326918e+001
3.30952367e+000	-8.85238432e+000
-1.20875350e+000	7.93448196e+000
1.87831081e+001	-3.52658496e+000
-2.26375675e+000	7.20009217e+000
9.38792237e+000	-1.19817127e+001
3.84426557e-001	1.27057884e+001
8.65455920e+000	-1.73070084e+001
-4.11586294e+000	1.35202000e+001
1.47761025e+001	-1.89813507e+000
3.26879603e+000	8.47355489e+000
5.97896650e-001	1.08537811e+001
1.44506606e+000	1.84936567e+001
-9.86237077e+000	-9.67468524e+000
-3.40635694e+000	9.87840381e+000
-2.82539650e-001	-2.59387756e+001
-1.42738641e+000	8.16026943e+000
-6.25946438e+000	-1.74556503e+001
-1.17431011e+001	1.78091541e+000
-1.53317207e+001	-1.18384902e+001
-8.75079674e-001	1.27529458e+001
-6.39122288e-001	-6.48324037e+000
-1.59417907e+000	-4.13984548e+000
1.71947321e+001	-2.79471827e+000
1.43702025e+000	-1.26780207e+001
-4.53624165e-001	-7.27248098e+000
4.52058487e+000	-9.28192725e-001
6.90765319e+000	-9.13307822e+000
1.42254300e+001	-4.84683639e+000
-2.60317663e+000	-4.38372238e+000
-1.26961713e+000	7.83309162e+000
-4.12457050e+000	-3.68700185e+000
-4.70256369e+000	1.99221905e+001
-2.96823416e+000	-2.88208170e+000
-1.28295480e+001	2.36109100e+001
-1.71919499e+000	6.92811520e+000
1.14075135e+001	3.68391293e+000
-3.28154430e+000	4.14893193e+000
-1.10987575e+001	1.31431884e+001
-1.35248291e+001	-1.02275124e+000
7.48020470e+000	1.62505272e+001
1.28016900e+001	-1.27341360e+001
7.27342312e+000	4.77698989e+000
-4.94962027e+000	-1.85113426e+001
3.03647475e+000	-4.57133035e-001
-9.36541304e+000	-9.55338793e+000
1.44050065e+001	6.61849582e+000
1.01868842e+001	-8.20760563e+000
6.35537115e-001	7.11882676e+000
-1.12702653e+000	-1.41796050e+001
-4.00485745e+000	5.03112722e-001
-3.73230705e+000	4.80664416e+000
8.22975352e+000	1.22183190e+000
-5.50713219e+000	4.37599936e+000
1.68585761e+001	-1.09471335e+001
-4.70256880e+000	-5.02899025e+000
-2.72109685e+000	1.32789164e+000
-4.42439257e+000	-1.50209622e+001
-1.01077556e+001	9.58363598e+000
-4.94373496e+000	-1.65719410e+001
3.13828024e+000	1.20193434e+001
-3.41955639e+000	-5.67372707e+000
2.05753787e+000	8.05630707e+000
4.06830342e-001	-1.22402231e+000
-6.74147699e+000	-8.99877852e+000
-3.45261742e+000	1.59290422e+000
-8.99533992e+000	1.84136425e+000
1.26882024e+000	9.62093329e+000
8.23405545e-001	3.92172418e+000
6.70881744e+000	-2.87944357e+000
-4.70494086e+000	1.82209535e+001
3.06663868e+000	-1.27033072e+001
1.98747197e+000	1.47693937e+001
-4.90451838e+000	9.44033965e+000
1.11997759e+001	1.12068054e+001
8.58103385e+000	-7.70303763e+000
1.79574126e+001	-3.27663071e+000
1.66163570e+000	9.92061937e-001
1.35320101e+001	1.49494521e+001
-5.57288745e+000	7.25159175e+000
-4.80320294e+000	-1.29919937e+001
-2.01312123e+001	-2.66403361e+001
3.65679981e+000	5.40180913e+000
-3.96206445e+000	-1.78744032e+000
-5.96371639e+000	9.64342744e-001
2.35643703e-002	-1.76588041e+001
-3.75994668e+000	-9.51883820e+000
-4.96816236e+000	-1.51484994e+001
3.31200320e+000	1.24495390e+001
4.21924642e+000	-4.67179406e+000
-1.18421133e+001	-4.54215708e+000
-2.87942134e+000	4.24336274e+000
3.36753967e+000	3.53121410e+000
9.14841407e+000	2.67099539e+000
-3.27115244e+000	1.14773238e+001
9.67670051e+000	-1.13407708e+001
9.51753135e-001	1.30254672e+001
-4.07238978e+000	-6.05431551e+000
-2.31712276e+000	3.08197922e+000
3.21731865e+000	6.93987426e-001
-8.37247206e+000	1.88917511e+001
7.57026518e+000	-4.84004988e+000
2.95561741e+000	2.81625280e+001
-1.16476983e+001	-7.33689802e+000
-3.48095194e+000	-2.59306709e+000
-4.67196738e-001	7.77074663e+000
5.29414226e+000	1.64718784e+001
1.11406007e-001	-8.39160895e+000
-3.02384185e+000	-4.68077418e+000
-8.41079233e+000	-2.30308337e+001
5.97024713e+000	-2.12883819e+000
2.20935975e+000	-1.29357689e+001
5.14869955e+000	2.15956211e+000
-3.95802824e+000	-1.42106866e+001
3.00533287e-001	1.64735683e+000
6.46841534e+000	-5.12029699e+000
1.30466869e+001	-8.25141040e+000
3.39332956e+000	-1.05381253e+001
5.27614398e+000	1.64258322e+001
-1.04842364e+000	-4.57626305e+000
4.68289695e+000	1.95781760e+001
-1.03095483e+001	-1.06983353e+001
1.48044245e+001	7.69278864e-001
-6.82621475e+000	3.50209412e+000
4.28796872e+000	1.23880411e+001
-7.08069659e+000	-1.31436246e+001
-7.33668916e+000	1.42512761e+001
-3.04703025e+000	-2.10477292e+000
-1.19292428e+001	3.82680270e+000
-3.73185897e+000	-2.90669216e+000
6.92888020e+000	1.12787609e+001
5.51481355e+000	4.19466245e+000
-2.49498507e+000	9.38378248e+000
-2.12113825e+001	-7.51433486e+000
2.22644798e+000	6.63012766e+000
-3.50241527e+000	-1.73836708e+001
2.53027781e+000	5.60222630e+000
3.13286097e+000	-9.00673800e+000
-5.68888380e+000	3.29146168e-002
-4.02646798e-001	-7.59387741e+000
4.16098770e-001	3.44677568e+000
7.88919227e-001	8.58776787e+000
5.54234288e+000	6.12268446e+000
1.77132930e+000	-8.95833980e+000
7.47129420e+000	-3.41363168e+000
6.31572931e+000	-2.48625277e+000
1.53142893e+001	4.84491122e+000
5.76573618e-001	-6.06395779e+000
3.86840715e-002	4.29012314e+000
-4.96122474e+000	-5.51360772e+000
1.57450684e+001	2.29742369e+000
-8.31921262e+000	-2.10763225e+001
5.43118485e+000	1.22935620e+001
5.60673774e-001	-5.02580885e+000
-1.07512508e+001	1.79400309e+001
-7.29202130e+000	-1.35823473e+001
5.54605006e+000	1.41978511e+001
-9.98379754e+000	-7.04447281e+000
-2.99276503e+000	-2.01473565e+000
-6.76542275e+000	-2.87624193e+000
7.71064845e+000	1.18591180e+001
-1.31206401e+001	-1.45852444e+000
-1.46063458e+000	7.82580228e+000
7.40772471e+000	-1.28653908e+001
-6.70812677e+000	1.30765674e+001
-6.24091379e+000	-2.26317266e+000
7.50311392e+000	1.94250993e+000
-1.29040632e+000	-7.61674801e+000
-4.04468702e+000	9.34225440e+000
1.78263466e+000	-4.02587298e+000
3.07195136e+000	1.22207242e+001
-8.61882882e-002	-1.46697793e+001
1.57366197e+001	-1.26382316e+001
-6.89705969e+000	-2.21282005e+000
1.12794524e+001	7.38232417e+000
-1.38014403e+001	1.63803470e+000
4.05268432e+000	1.53378346e+001
1.32241703e+000	-7.77184698e+000
6.11525377e+000	-1.87321602e+000
4.90404417e+000	-1.90713452e+000
9.40389259e+000	-6.31188148e-001
-1.40359602e+001	-8.98883846e+000
4.33835513e+000	-4.08324721e-002
-2.68172185e+000	-7.28066510e+000
-1.34837384e+001	1.44812119e+001
-1.29395387e+000	-5.84480124e+000
2.87228586e+000	6.37787043e+000
-2.23371862e+000	-9.26161068e+000
-5.63494668e+000	1.06258720e+001
-1.08254917e+001	-1.36478516e+001
1.95596850e+001	8.34740055e+000
8.67901933e+000	4.22511018e+000
7.82891233e-001	-8.38482241e+000
3.84314872e+000	-8.42441343e+000
-5.85871494e+000	1.41421623e+001
-1.09313333e-001	-1.77209978e+000
8.32262843e+000	1.50990466e+001
-7.91551772e-001	6.73422527e-001
9.33978465e-001	4.36088449e+000
2.09374887e+000	3.42972746e+000
6.83718253e+000	7.26901394e+000
-1.62947113e+001	-1.89265461e+001
1.41383639e+001	-1.09940509e+001
-1.73100313e+001	-8.90181038e+000
5.66713368e+000	3.91932819e+000
-9.66749093e-003	-6.79886276e+000
-1.00287902e+001	4.85334657e+000
-3.26004158e+000	4.40847759e+000
4.69307290e+000	8.72055138e+000
-1.51122952e+001	-4.91751434e+000
-2.71798411e+000	-8.56072378e+000
5.29586542e+000	-2.75234753e-001
1.24163391e+001	1.72390731e+001
-9.01803105e+000	2.97654041e+000
4.95536099e+000	-5.13768697e+000
4.72093333e+000	-3.88480453e+000
9.33868915e-003	1.00915919e+000
-4.84137480e+000	-3.56847146e+000
-2.60000706e+000	6.71543943e-001
-8.55568019e+000	-2.34534746e+000
-4.52458958e-001	8.74519482e+000
6.65431875e+000	-2.24488986e+000
1.29844533e+000	-9.93036738e+000
-4.63088600e+000	-1.22262368e+001
3.56177081e+000	1.07879906e+001
1.25953337e+000	5.36916480e+000
4.25078651e+000	-3.43627709e-001
9.48208406e+000	-4.47823735e+000
9.32599515e+000	1.86279521e+001
-1.20081458e+001	-1.07586586e+001
5.73981495e-002	1.07203906e+001
-1.00635546e+000	-4.83857424e+000
4.48661935e+000	-1.16248370e+001
4.52888116e+000	-2.17693680e+000
-1.82032241e+000	1.05654133e+001
5.89543901e+000	-3.14318630e+000
-3.30752532e+000	1.08456316e+000
1.30887228e+000	1.78421495e+001
-1.05967202e+001	6.98875419e+000
-6.32515826e+000	-6.44836568e+000
1.74972486e+001	-2.79147525e+000
-3.04829037e+000	-2.07610092e+001
7.59828778e+000	9.55148957e+000
-1.61178563e+001	-1.01681495e+001
6.93285492e+000	-1.00746643e+001
-1.70477020e+001	4.11487919e+000
1.89093860e+001	9.30358420e+000
-9.17073465e+000	-8.09024127e+000
-5.84229309e-001	1.32408761e+001
-1.39643740e+001	-1.37865666e+000
4.06496835e+000	4.97541283e+000
1.33580593e+000	-1.54047035e+001
1.07743286e+001	-1.19595685e+001
5.62391068e+000	1.89805780e+000
5.97371976e+000	1.07045968e+001
-1.77460116e+001	1.57595096e+000
4.30122073e+000	4.53286117e+000
-4.45338362e+000	-4.10321148e+000
-2.19874475e+000	1.43715567e+001
6.27059576e-001	6.64829844e-001
9.66331403e+000	1.42178975e+001
-1.46121782e+000	1.20779700e+000
-1.03650023e+001	-8.85576067e-001
-4.69898988e+000	-1.97669470e+001
-6.97762040e+000	7.02199063e+000
5.62156960e+000	-1.60681334e+001
8.16661985e+000	2.07452951e+000
-5.60334374e+000	7.33905172e+000
3.57803062e+000	6.52852702e+000
1.80915444e+000	-1.11714004e+001
1.35139585e+001	-2.01797929e+001
-1.83714637e+001	-1.11769940e+001
1.48349981e+001	1.53229559e+001
-8.29346719e+000	6.72189514e+000
1.61337828e+001	1.93675010e+001
-1.34986540e+001	-1.09118089e+001
2.27989051e+000	-2.74255746e+000
-2.62680102e+000	-3.70339710e+000
1.01977221e+001	4.12301004e+000
-4.41974150e+000	-4.73340417e+000
2.30135886e+000	-2.21437595e-001
2.13248312e+000	7.22582581e+000
-3.12853229e+000	8.90828402e+000
-1.77916906e+001	7.68388646e+000
1.76739021e+001	6.26021057e+000
-1.38165859e-001	-4.82815655e+000
2.96050468e+000	-5.07158066e+000
-1.00845748e+001	-9.47134052e+000
1.42076527e+001	-1.87737934e+000
-6.50850341e+000	-1.60200026e+001
5.69082582e+000	1.35193139e+000
-3.09737786e+000	2.96806296e+000
-1.22803475e+000	-3.78814446e+000
-7.01053004e+000	-3.60846249e+000
-1.18769958e+001	5.89973657e+000
-6.81123191e+000	-3.24290802e+000
4.29208535e+000	8.48968805e+000
-1.39001653e+001	2.15830620e+001
1.33576817e+001	-1.15394383e+001
-1.24015569e+001	-6.89421699e+000
1.89053239e+001	8.72022618e+000
5.86517462e+000	-4.78053572e+000
7.86267358e+000	5.82533525e+000
6.23648283e+000	-2.76338687e+000
8.07012236e+000	-3.24799307e+000
-3.05011402e+000	-3.41958621e+000
2.47198537e+000	1.12051642e+001
-1.22670712e+001	-5.54273713e+000
8.37244666e-001	1.22543684e+001
-5.45790314e+000	6.41546974e+000
7.74050173e+000	6.45789855e+000
-7.92556452e+000	-4.86281051e+000
4.65709316e+000	5.43786255e-001
-1.29208217e+001	-1.05494698e+001
1.77570904e+000	-5.46691748e+000
2.33789683e+000	-9.42538129e+000
3.57816279e+000	6.60883031e+000
-6.55893218e+000	-2.31763978e+000
6.57440215e+000	5.67363057e+000
-1.18927130e+001	-1.57330302e+001
2.74462981e+000	-2.23397535e+000
-2.56547167e+000	-3.97670197e+000
2.10253836e+000	-1.52622025e+001
-1.52254364e+000	5.67888811e+000
6.76507056e+000	1.46884584e+001
-5.12329940e+000	-1.09011326e+001
-3.82977794e+000	1.16018374e+001
4.66129376e+000	-4.43505631e+000
5.92518874e+000	8.33873845e+000
9.64116177e-001	-4.59204141e+000
1.24687195e+001	6.82348615e+000
1.83581662e+000	1.51509316e+001
-5.22602756e+000	1.65239018e+001
4.45402942e+000	-1.24531602e+001
-1.02781094e+000	5.56830497e+000
-5.46413888e+000	1.33611289e+000
-9.62600157e+000	-5.12222459e+000
-7.29077791e+000	-1.22186033e+001
8.67632606e+000	1.00522727e+001
1.14778213e+001	-8.42478946e+000
2.15667349e+000	-8.94332037e+000
-3.14128655e+000	-3.10813010e+000
-3.24072851e+000	-1.92694524e+000
-1.08735625e+001	3.16109048e+000
5.10038052e+000	2.78175900e+000
-1.64743149e+001	-1.05249390e+001
1.83838100e+000	-1.06681710e+001
-9.11807396e-002	-9.04915338e+000
2.36254064e+000	6.84787716e+000
-1.63020921e+001	1.95020253e+000
1.00267605e+001	1.44260479e+001
1.47477082e+001	-9.78462347e+000
1.61497569e+001	9.22554587e+000
-6.83398093e+000	9.31830719e-001
-1.24791509e+000	1.39367356e+001
3.61436935e+000	-3.32287032e-001
5.65837991e-001	6.41117335e+000
-1.01660135e+001	-3.63417690e+000
7.97810574e+000	-4.45042684e+000
-6.86281217e+000	-2.77577409e+000
1.25590652e+001	1.70530565e+001
-1.52547045e+000	-4.54469414e+000
8.75476534e+000	6.03969032e+000
-6.46703639e+000	-1.09737144e+001
-6.43174412e+000	2.95571028e+000
1.85674432e+000	-1.74620108e+000
-5.01902325e-001	6.69946482e+000
-2.37132851e+001	-4.45616198e+000
-2.62314889e-001	2.99748938e+000
2.98025503e+000	-1.91840860e+001
-1.05608219e+000	1.08762984e+001
-5.34949310e+000	-9.85249672e+000
1.65906127e+001	4.90986484e+000
-1.93753366e+001	-9.85997440e+000
1.38591576e+001	3.23034568e+000
-3.91483176e+000	-8.19778786e+000
9.77038227e+000	2.28573136e+000
4.99529765e+000	4.17524051e+000
-4.80048676e+000	2.68128236e+000
1.16263580e+001	-4.41013244e+000
1.01741898e+001	-3.26326254e-001
-8.72060381e+000	-1.41281733e+001
7.78992050e+000	1.05448372e+001
-9.07623709e+000	-6.17225659e+000
3.18516454e+000	-4.56733697e+000
3.87744227e+000	-2.45499278e-001
6.36722283e+000	3.29652126e+000
-1.25581952e-001	1.20608652e+000
3.84253297e+000	1.86555655e+001
-1.12179312e+001	-2.25782072e-001
-3.30568556e+000	1.43879888e+001
-1.26562342e+001	2.29693116e+000
8.32576496e+000	1.18102543e+000
-1.51720806e+001	-5.30976079e-001
-3.04004784e+000	-1.09671485e+000
-6.27059674e+000	-3.42132695e+000
2.27253682e+000	1.51833662e+001
-1.09622183e+001	-1.31408956e+001
2.48914244e+001	-5.64452769e+000
-2.82614278e+000	-9.34761453e+000
-1.30374255e+000	8.26192975e+000
-1.07230318e+001	-2.01479101e+001
-1.11840979e+001	2.29675540e-001
-3.78558119e+000	7.55931967e+000
5.97155512e+000	5.19780170e+000
2.46289323e+000	-1.17483834e+001
2.18409612e+001	1.34438848e+001
-5.56116077e+000	-2.18178939e+001
6.39414361e+000	1.02913804e+001
5.31026861e-001	-8.33234437e-001
1.30166354e+001	1.21456258e+000
-4.91485792e+000	1.03598383e+000
1.69563475e+001	-9.08657398e+000
-1.19458461e+001	2.43951964e-001
1.36516298e+001	1.26843367e+000
-2.21289508e+001	1.02803423e+001
2.07409970e+000	6.33238607e+000
-3.92347624e+000	-7.98870191e+000
2.32991489e+000	9.88181365e+000
-1.22424186e+001	-1.86768510e+000
8.70874393e+000	1.16514819e+001
-1.42852788e+001	-4.08473685e+000
3.29595151e+000	2.26271002e+000
2.03563756e+000	-2.79205847e+000
1.22889127e+001	-4.68172383e+000
-8.34221651e+000	3.60553868e+000
-5.71564524e+000	2.05406525e-001
-7.70356934e+000	7.26580749e+000
1.16646486e+001	-1.60127439e-002
2.34898074e-001	-3.29531372e+000
9.50042920e+000	1.09136512e+001
-8.44570160e+000	-1.74922950e+001
5.70127371e+000	8.00585837e+000
-6.32237098e+000	-5.40665460e+000
1.29059925e+001	-9.57795439e+000
1.65100486e+000	-1.29145795e+000
7.85438343e+000	8.76778355e-001
-1.50240687e+001	-2.10696644e+001
1.11482074e+001	8.29842918e+000
-8.68363514e+000	1.68564846e+000
-5.04396107e+000	1.19686260e+001
-7.97160854e+000	-1.05223506e+001
1.72144805e+000	-3.14751023e+000
-1.10976435e+000	1.40445765e+001
-1.71965343e+000	4.78294301e+000
-1.57812379e+001	-5.72385393e+000
1.75297524e+000	3.73691791e+000
-1.24137704e+000	-3.74505981e+000
-1.63285564e+000	9.88756102e+000
2.04658105e+000	-8.23718444e+000
1.28028127e+001	2.45347206e+000
-2.01150122e-001	-1.08926418e+000
1.76586322e+001	-4.99946624e+000
-2.66359511e+000	-1.40063073e+001
1.01136409e+001	8.51970638e+000
-3.67691021e+000	-1.69083873e+001
5.01327926e+000	-7.42248059e+000
-1.61463046e+001	7.39352129e+000
1.37432016e+001	1.31990903e+001
-6.11395631e+000	1.42492390e+001
3.56328840e+000	7.27681788e+000
-4.72130497e+000	-8.78247982e-002
7.22984622e+000	8.67118818e-001
-6.85616080e+000	7.24436822e+000
2.12785948e+001	1.03889935e+001
-1.07875040e+001	-1.14212577e+001
-7.23924918e+000	5.36244319e+000
-1.40883713e+001	-8.93288249e+000
1.21619763e+001	-2.87086360e+000
-8.70546921e+000	-1.08123706e+001
3.58804692e+000	9.17405877e+000
-1.62331820e+001	-9.97448339e+000
8.14878194e+000	7.88810921e+000
-1.33751347e+001	-8.06916233e+000
1.96678826e+001	2.96732157e+000
-1.24983545e+001	1.75965758e+000
1.86586868e+001	4.14565324e+000
-8.98629927e+000	-1.13583563e+001
5.16681596e+000	-2.91553679e-001
-1.22878453e+001	6.46133399e+000
7.87694278e+000	8.78754702e+000
-3.06415141e+000	-2.26874238e+001
1.05523761e+001	-1.64079300e+001
-1.83900143e+001	4.38031699e+000
8.37048761e+000	5.61985129e+000
-4.43515258e+000	1.07409888e+000
8.30216462e+000	9.28260704e+000
-7.77284977e+000	1.17796424e+001
1.61137877e+001	4.83514471e+000
-2.18806541e+001	-4.20714084e+000
1.31994707e+001	8.21491496e+000
1.47127432e+000	-1.22639974e+001
1.53622490e+001	1.05502847e+001
-1.71753586e+001	9.14476216e+000
-3.10489642e+000	1.39758618e+000
-1.75661382e+001	-1.40642502e+001
1.66573261e+001	7.98460648e+000
-1.29059919e+001	-1.32165883e+000
1.13938612e+001	-1.23138634e+000
-1.38245509e+001	-7.72139096e+000
8.83572851e+000	-7.62176969e+000
-5.89319214e+000	-4.11056663e+000
1.51745618e+001	-6.19998453e+000
9.34224760e+000	-1.65114728e-001
1.54268928e+001	-2.02865322e+000
-9.36971497e+000	-1.49165439e+001
1.24525825e+001	1.77294550e+001
-1.84654117e+001	2.99203567e+000
1.13419895e+001	1.05516192e+001
-2.00606449e+001	-1.23010984e+001
4.48730921e-001	1.27589367e+001
-1.15526260e+001	3.87419928e+000
1.32206950e+001	6.89060271e-001
-1.05481247e+001	6.84927124e+000
6.65164784e+000	1.16811073e+000
-3.44262214e+000	-6.03522351e+000
4.33199805e+000	4.63961042e+000
1.43894962e+000	-1.03278890e+001
8.16572669e+000	1.25576130e+001
-1.73047320e+001	-4.00755347e+000
1.70821516e+001	-1.55827828e+000
-1.37548853e+001	-3.08707025e+000
3.96174988e+000	-6.52576245e+000
-6.94012496e+000	-3.96776931e+000
2.13598874e+001	-6.70026860e+000
-1.18024559e+001	2.94186413e+000
1.26040124e+001	-8.43628898e+000
-2.29026234e+001	2.51333048e+000
1.81247440e+001	1.26363769e+001
-2.11654265e+001	-7.63852868e-001
1.02527516e+001	7.93552809e-003
-1.30027394e+001	-6.10709774e+000
2.39344987e+001	1.18006858e+000
-8.04669407e+000	-1.16174891e+001
1.57668154e+001	7.23287688e-002
-1.53697747e+001	-6.77870812e-001
2.29540494e+000	5.99371373e+000
-2.29491225e+001	1.52572157e+001
1.64006251e+001	-1.42710867e+000
-1.58377094e+001	-7.12238672e+000
2.23706872e+001	1.25277184e+001
-3.00192826e+000	7.77643636e+000
7.45093520e+000	3.93246344e+000
-1.24643103e+001	-2.15015345e+000
1.55653145e+001	1.63969840e+000
-1.05185433e+001	1.03321495e+001
1.16786566e+001	4.73774181e+000
-5.65131669e+000	-4.87657014e+000
1.10451062e+001	-4.97622191e+000
-1.72434551e+001	-1.17930826e+001
3.25373334e+000	2.77652975e+000
-1.69836050e+001	-1.64683931e+001
3.06141123e+000	-1.40421171e+001
-8.28963634e+000	4.39476858e+000
1.77029030e+001	5.60224173e+000
-7.33032525e+000	-2.13539645e+000
1.23515151e+001	4.62399846e+000
-1.25387289e+001	-3.70318549e+000
3.00456783e+000	3.01713451e-001
-7.55149193e+000	-7.47393867e+000
2.20932637e+001	-2.60114980e+000
-1.19232645e+001	3.50406355e+000
3.17401768e+000	4.68532354e+000
3.53735572e+000	2.30019142e+000
1.67613393e+001	9.26641304e+000
-1.41197513e+001	7.73081748e+000
-1.99787728e+000	4.80306788e-001
-1.79537163e+001	-3.67206142e+000
1.06514572e+001	3.40524238e+000
-1.83627406e+001	-1.32470329e+001
2.07926200e+001	3.20436542e+000
-1.99289945e+001	4.02713927e+000
2.61156112e+001	9.00269789e+000
-3.64971322e+000	-2.66876180e+000
2.27887938e+001	-2.30230337e+000
-2.28980207e+001	-2.86129891e-001
1.38512383e+001	3.97576633e+000
-1.37323697e+001	-3.87636511e+000
1.79005835e+001	1.94330770e-001
-1.10187297e+001	-1.02262583e+001
1.81064313e+001	3.01382074e-001
-1.93754077e+001	-6.19346844e+000
9.99305588e+000	-2.89210987e+000
-2.60484531e+001	-2.46351632e+000
1.36765009e+001	4.44709096e+000
-1.80730338e+001	-5.95846191e+000
2.34401684e+001	1.11484113e+000
-1.95701416e+001	3.15929822e+000
1.56789682e+001	-2.29580662e+000
-2.83872444e+001	-3.68455651e+000
1.96114572e+001	1.53609492e+001
-1.31634939e+001	-2.31219728e+000
5.31543586e+000	1.68731364e+000
-1.81933086e+001	4.76001350e+000
1.27799539e+001	-6.32540821e+000
-1.29426188e+001	-3.35466134e+000
1.74451891e+001	1.09875854e+001
-1.59035873e+001	1.97874230e+001
2.88101424e+001	1.51281835e+001
-2.42383156e+001	-1.16144485e+001
4.52936273e+001	4.11665628e+000
-1.53484891e+001	-4.04297370e-001
1.33144281e+001	-1.13628733e+001
-1.88095335e+001	-1.07476278e+001
1.91326275e+001	-1.31448807e+001
-1.99875766e+001	5.14133859e+000
1.73306606e+001	1.32308103e+000
-2.45449341e+001	-1.52020237e+001
1.98442569e+001	-6.75661862e+000
-2.45310298e+001	5.28274822e+000
2.42638677e+001	-3.52977173e+000
-2.06126782e+001	5.01330637e-001
1.88479270e+001	1.87704736e+000
-2.88430456e+001	-5.83396638e+000
3.39496761e+001	2.31246120e+000
-1.83431184e+001	1.14469481e+001
3.45577215e+001	-1.39775221e+000
-3.20036149e+001	2.34328283e-001
2.50800035e+001	-1.06905191e+001
-3.25357915e+001	8.72971548e+000
1.73172125e+001	1.45860817e+001
-3.14048777e+001	9.20990229e+000
1.95655256e+001	1.28338801e+001
-2.64045275e+001	-4.83595994e-001
3.25299950e+001	4.42210554e+000
-3.29438733e+001	-8.92493513e+000
2.62751746e+001	-1.02728030e+001
-3.92440225e+001	-3.40847171e+000
3.76877092e+001	-5.93871625e+000
-2.97230906e+001	-1.79274485e+000
4.02787240e+001	-9.62899284e+000
-4.17754510e+001	1.02910673e+001
4.32944596e+001	-5.00692602e+000
-2.99982077e+001	1.61611994e+001
4.23755300e+001	-1.32112070e+001
-2.65402934e+001	-3.52621859e+000
4.68940145e+001	-5.30465173e+000
-3.58623050e+001	-2.31180864e+000
4.51649112e+001	-6.13650506e+000
-4.99939074e+001	1.23000772e+001
3.78803774e+001	1.11788798e+001
-4.28810394e+001	9.18449067e+000
2.32811995e+001	-1.02460133e+001
-4.78968876e+001	1.29720338e+001
4.33981641e+001	-7.41033053e+000
-6.57781727e+001	-3.72336628e+000
6.32631747e+001	-5.47625797e+000
-5.95125972e+001	1.25607687e+001
6.31421228e+001	-5.64694912e+000
-6.50099135e+001	-1.89718045e+000
7.23822963e+001	-4.42650681e+000
-8.34184745e+001	-9.19693290e-001
8.62529203e+001	-1.12001522e+001
-5.56304065e+001	1.85180378e+001
7.31833984e+001	-1.94210262e+001
-7.27743480e+001	8.77752532e+000
8.66762378e+001	-8.03575406e+000
-7.85764103e+001	1.33516657e+001
1.07239020e+002	-1.68354164e+001
-1.02886841e+002	2.90344693e+001
1.04783751e+002	-1.94941506e+001
-1.37507957e+002	2.52402015e+001
1.18111453e+002	-3.35615052e+001
-1.46623965e+002	2.34160757e+001
1.51028941e+002	-2.76217854e+001
-1.87283833e+002	3.19716505e+001
2.09443751e+002	-4.73773849e+001
-2.54043546e+002	5.21180529e+001
2.89936541e+002	-4.60388196e+001
-3.78938975e+002	7.85479507e+001
4.95694942e+002	-8.67851858e+001
-7.37765295e+002	1.29839351e+002
1.53154481e+003	-2.25225273e+002
