Dangerplot_version	1.0
Number_of_points	1024
Sampling_frequency	1.00000000e+03
Transmitter_frequency	6.36840000e+07
Phi0	-6.60373388e-01
Phi1	6.36619772e-06
PPM_reference	4.71517150e+00
Real_FID	Imag_FID	
1.02323000e+03	5.99660000e+02
3.79347000e+02	6.62878000e+02
2.01834000e+02	3.90598000e+02
2.67042000e+02	2.47507000e+02
3.96026000e+02	3.29966000e+02
2.55535000e+02	3.36175000e+02
2.47158000e+02	2.07912000e+02
3.10634000e+02	1.41544000e+02
4.00725000e+02	1.93442000e+02
3.33032000e+02	2.58080000e+02
3.02326000e+02	2.68201000e+02
3.29303000e+02	2.70462000e+02
3.75949000e+02	3.65360000e+02
2.86630000e+02	4.53833000e+02
1.94372000e+02	4.27999000e+02
1.56544000e+02	3.18908000e+02
2.60328000e+02	2.66047000e+02
3.31003000e+02	3.05770000e+02
3.60974000e+02	3.58252000e+02
3.21720000e+02	3.82301000e+02
2.88079000e+02	3.63583000e+02
2.71453000e+02	3.57962000e+02
2.70463000e+02	3.56731000e+02
2.13055000e+02	3.54975000e+02
1.60809000e+02	3.59749000e+02
1.29923000e+02	3.04710000e+02
1.36743000e+02	2.28411000e+02
1.73411000e+02	2.26229000e+02
2.00781000e+02	2.55884000e+02
1.81756000e+02	2.85221000e+02
1.88293000e+02	2.89397000e+02
1.99337000e+02	3.22751000e+02
1.53409000e+02	3.83182000e+02
7.40311000e+01	3.73027000e+02
4.91604000e+01	3.25849000e+02
5.20553000e+01	2.80037000e+02
8.23111000e+01	2.71046000e+02
5.28342000e+01	2.48388000e+02
5.76710000e+01	2.27985000e+02
9.43859000e+01	2.07987000e+02
1.35031000e+02	2.45686000e+02
1.16087000e+02	3.06585000e+02
5.78301000e+01	3.22131000e+02
2.60611000e+01	3.02493000e+02
1.12682000e+01	2.93755000e+02
-1.82598000e+00	2.85645000e+02
-2.30654000e+01	2.59747000e+02
-3.94515000e+01	2.09143000e+02
4.03712000e+00	1.83196000e+02
3.15668000e+01	1.72940000e+02
4.63746000e+01	1.90354000e+02
6.59578000e+01	2.08306000e+02
4.70290000e+01	2.30073000e+02
2.91913000e+01	2.28914000e+02
-1.81385000e+00	2.42692000e+02
-3.81404000e+01	2.24452000e+02
-6.76389000e+01	1.79492000e+02
-7.57544000e+01	1.60496000e+02
-5.64637000e+01	1.34845000e+02
-3.30654000e+01	1.35247000e+02
-2.88110000e+01	1.50997000e+02
-2.89942000e+01	1.43835000e+02
-9.51794000e+00	1.65040000e+02
-2.05586000e+01	1.79458000e+02
-3.80688000e+01	2.01319000e+02
-6.89946000e+01	1.84470000e+02
-8.02475000e+01	1.62042000e+02
-8.29539000e+01	1.31318000e+02
-7.73967000e+01	9.89516000e+01
-5.53907000e+01	9.35392000e+01
-4.55570000e+01	1.00065000e+02
-2.94304000e+01	1.09147000e+02
-2.10383000e+01	1.19019000e+02
-4.32841000e+01	1.37787000e+02
-5.02570000e+01	1.27198000e+02
-7.80963000e+01	1.23424000e+02
-8.81199000e+01	1.20003000e+02
-9.61021000e+01	9.97076000e+01
-9.44855000e+01	7.19111000e+01
-8.48318000e+01	6.17682000e+01
-4.79141000e+01	5.60860000e+01
-4.53083000e+01	7.36017000e+01
-2.60324000e+01	8.01477000e+01
-3.40765000e+01	1.12286000e+02
-4.86651000e+01	1.05804000e+02
-7.56636000e+01	1.01253000e+02
-7.99865000e+01	1.09586000e+02
-1.09234000e+02	7.18819000e+01
-1.01498000e+02	5.11705000e+01
-8.83545000e+01	3.69828000e+01
-6.41478000e+01	3.60206000e+01
-5.85036000e+01	3.82865000e+01
-4.58651000e+01	3.24045000e+01
-4.22795000e+01	6.28147000e+01
-2.95094000e+01	7.11352000e+01
-4.67930000e+01	9.35547000e+01
-7.01830000e+01	6.89606000e+01
-8.27875000e+01	6.42543000e+01
-8.11377000e+01	3.99598000e+01
-7.91678000e+01	2.67840000e+01
-7.30798000e+01	2.65531000e+01
-5.95642000e+01	2.56749000e+01
-4.50269000e+01	1.24970000e+01
-3.47726000e+01	2.99915000e+01
-4.33417000e+01	3.53370000e+01
-5.39729000e+01	6.13500000e+01
-6.54449000e+01	4.90662000e+01
-6.53468000e+01	3.99596000e+01
-6.46250000e+01	3.14186000e+01
-6.92770000e+01	3.12721000e+01
-6.93431000e+01	1.66974000e+01
-6.58083000e+01	-5.12508000e+00
-4.53464000e+01	-2.53576000e+00
-3.74733000e+01	1.52248000e+01
-3.81926000e+01	3.46311000e+01
-5.46937000e+01	2.36411000e+01
-4.53117000e+01	1.98648000e+01
-5.82794000e+01	2.36214000e+01
-5.87414000e+01	1.53615000e+01
-5.98093000e+01	1.58590000e+01
-6.76590000e+01	2.59056000e+00
-5.52679000e+01	-2.23382000e+00
-3.97538000e+01	-4.21791000e+00
-4.08967000e+01	1.11452000e+01
-3.97439000e+01	1.85111000e+01
-5.14584000e+01	4.52672000e+00
-5.33679000e+01	1.54650000e+01
-4.30644000e+01	2.17795000e+01
-6.15378000e+01	2.03216000e+01
-6.87544000e+01	1.04193000e+01
-5.49283000e+01	-1.16983000e+01
-5.59077000e+01	-6.66322000e+00
-3.94220000e+01	-8.74321000e+00
-3.31179000e+01	-1.02585000e+01
-3.08685000e+01	-7.46978000e+00
-3.57599000e+01	-3.23363000e+00
-2.45691000e+01	3.47546000e+00
-3.84484000e+01	1.17701000e+01
-4.31720000e+01	9.31808000e+00
-5.31553000e+01	3.65191000e+00
-5.41161000e+01	-3.24682000e+00
-5.56601000e+01	-1.24296000e+01
-4.36433000e+01	-3.91354000e+00
-4.42196000e+01	-1.58795000e+01
-2.96298000e+01	-2.09703000e+01
-2.81155000e+01	-1.89108000e+01
-3.06868000e+01	5.74964000e+00
-4.41061000e+01	1.89689000e+01
-4.25136000e+01	7.81174000e+00
-4.18454000e+01	-1.07137000e+00
-3.82235000e+01	-9.41696000e-02
-3.92798000e+01	-9.13372000e-01
-3.30688000e+01	-8.54189000e+00
-4.28389000e+01	-1.90871000e+01
-2.84568000e+01	-1.30693000e+01
-2.52982000e+01	-1.88283000e+01
-2.84723000e+01	-2.05293000e+01
-2.99775000e+01	-9.06721000e+00
-3.41704000e+01	-1.10587000e+01
-4.09511000e+01	-6.33543000e+00
-3.19760000e+01	-5.12710000e+00
-3.16568000e+01	-4.76486000e+00
-3.49696000e+01	-1.49537000e+01
-3.92368000e+01	-6.91141000e+00
-3.71779000e+01	-1.72111000e+01
-3.34725000e+01	-8.64163000e+00
-2.29095000e+01	-1.65080000e+01
-2.62052000e+01	-4.92216000e+00
-2.36791000e+01	-1.28569000e+01
-2.46545000e+01	-8.32621000e+00
-2.55907000e+01	-1.58078000e+01
-3.80843000e+01	-7.47560000e+00
-3.22191000e+01	-2.40660000e+01
-2.86126000e+01	-2.10337000e+01
-3.32154000e+01	-1.40097000e+01
-2.20425000e+01	-1.03596000e+01
-1.50489000e+01	-1.18560000e+01
-2.92129000e+01	-1.70070000e+01
-1.95162000e+01	-1.82230000e+01
-2.92650000e+01	-1.68936000e+01
-2.12970000e+01	-9.85508000e+00
-3.04842000e+01	-1.19979000e+01
-2.01138000e+01	-1.38046000e+01
-3.36892000e+01	-1.75466000e+01
-2.61484000e+01	-1.31630000e+01
-2.28485000e+01	-1.48859000e+01
-1.09431000e+01	-1.58096000e+01
-1.22014000e+01	-1.01432000e+01
-2.00724000e+01	-4.66599000e+00
-2.21475000e+01	-2.26654000e+01
-2.04057000e+01	-1.44261000e+01
-2.21132000e+01	-1.80477000e+01
-2.47690000e+01	-1.84432000e+01
-2.03083000e+01	-1.06584000e+01
-2.29142000e+01	-1.73013000e+01
-1.00280000e+01	-1.80279000e+01
-1.60623000e+01	-2.84037000e+01
-2.06586000e+01	-2.02526000e+01
-2.35700000e+01	-1.88582000e+01
-3.21185000e+01	-2.75890000e+01
-1.06344000e+01	-1.90120000e+01
-1.53927000e+01	-1.96853000e+01
-3.00149000e+01	-1.66014000e+01
-2.79325000e+01	-2.06155000e+01
-1.47230000e+01	-1.60564000e+01
-1.46326000e+01	-1.59179000e+01
-1.68136000e+01	-1.57589000e+01
-1.79675000e+01	-7.83806000e+00
-7.58499000e+00	-1.74791000e+01
-1.03210000e+01	-2.27019000e+01
-9.76711000e+00	-1.29441000e+01
-1.80483000e+01	-1.29817000e+01
-1.41310000e+01	-1.90787000e+01
-1.81970000e+01	-2.25274000e+01
-1.23352000e+01	-1.35983000e+01
-1.69941000e+01	-1.21882000e+01
-1.92747000e+01	-1.53704000e+01
-2.16358000e+01	-1.67560000e+01
-1.71566000e+01	-2.89319000e+01
-1.50153000e-01	-8.37359000e+00
-1.71464000e+01	-1.03533000e+01
-5.63736000e+00	-1.60989000e+01
-1.05750000e+01	-1.47309000e+01
-1.73301000e+01	-1.85005000e+01
-1.23816000e+01	-2.43759000e+01
-7.90183000e+00	-8.04363000e+00
-1.65251000e+01	-2.44481000e+01
-9.55205000e+00	-1.41426000e+01
-7.86622000e+00	-4.21862000e+00
-1.68995000e+01	-1.66492000e+01
-1.83451000e+01	-2.16418000e+01
-8.12710000e+00	-1.41411000e+01
2.70762000e+00	-1.99692000e+01
-1.82264000e+01	-1.77221000e+01
-4.86999000e+00	-1.68100000e+01
-1.59294000e+01	-1.56407000e+01
-1.08568000e+01	-1.96296000e+01
-1.10064000e+01	-2.41768000e+01
-9.58004000e+00	-1.80250000e+01
-5.08877000e+00	-2.12126000e+01
-1.08616000e+01	-1.70718000e+01
-7.90264000e+00	-2.51237000e+01
-1.82667000e+01	-2.53538000e+01
-1.35526000e+01	-2.61786000e+01
-6.73685000e+00	-1.49397000e+01
-1.08425000e+01	-1.76747000e+01
1.69324000e+00	-1.24031000e+01
-3.75655000e+00	-2.34427000e+01
-6.62141000e+00	-1.18557000e+01
-2.30067000e+00	-1.53622000e+01
-8.19939000e+00	-2.21325000e+01
-8.34023000e+00	-1.49295000e+01
-1.00951000e+01	-1.57737000e+01
-1.22140000e+01	-1.24450000e+01
7.53973000e-01	-2.07003000e+01
-9.19059000e+00	-2.47133000e+01
-5.68065000e+00	-2.49429000e+01
-8.02737000e+00	-1.52459000e+01
-3.45877000e+00	-2.27918000e+01
-6.25191000e+00	-1.91656000e+01
-5.04932000e+00	-2.22456000e+01
-1.39924000e+01	-1.52454000e+01
-8.51026000e+00	-1.80492000e+01
1.01613000e+01	-2.25917000e+01
-8.18998000e+00	-1.37073000e+01
-3.41320000e+00	-1.09359000e+01
-1.02854000e+01	-2.00720000e+01
1.92050000e+00	-1.86175000e+01
-6.90444000e+00	-1.26510000e+01
-1.06612000e+00	-1.63609000e+01
-2.49835000e-01	-2.23423000e+01
-8.86217000e+00	-2.91204000e+01
-6.04276000e+00	-1.44807000e+01
-1.11779000e+01	-1.69109000e+01
-6.81507000e+00	-1.13848000e+01
-8.19764000e+00	-1.12948000e+01
-2.63623000e+00	-2.81956000e+01
-9.81885000e+00	-2.16873000e+01
-1.82921000e+00	-1.38496000e+01
-1.19831000e+01	-1.47161000e+01
-2.39787000e+00	-1.82133000e+01
-4.39723000e+00	-2.21602000e+01
8.36455000e+00	-1.43649000e+01
-3.09050000e+00	-9.43540000e+00
-5.31357000e+00	-1.28247000e+01
-1.10443000e+00	-7.22694000e+00
-1.42075000e-02	-1.25520000e+01
4.53189000e+00	-1.98757000e+01
-1.98995000e+00	-2.08264000e+01
-2.56941000e+00	-1.74080000e+01
-1.96573000e+00	-5.56309000e+00
-4.04326000e-01	-1.33895000e+01
3.61745000e+00	-1.34810000e+01
-9.84761000e+00	-8.62708000e+00
-6.52941000e+00	-3.12618000e+01
-5.01196000e+00	-1.89594000e+01
4.91037000e+00	-9.48209000e+00
3.75758000e+00	-2.12281000e+01
4.65330000e+00	-1.32012000e+01
3.12608000e+00	-1.04252000e+01
3.51003000e+00	-1.08805000e+01
-3.20200000e+00	-1.04396000e+01
-3.38278000e+00	-6.63597000e+00
5.11293000e+00	-1.56885000e+01
2.62331000e-01	-1.18358000e+01
3.30976000e+00	-2.71197000e+01
-3.84763000e+00	-1.50038000e+01
3.45546000e+00	-7.67897000e+00
-1.15446000e+00	-1.10487000e+01
3.87883000e+00	-6.62916000e+00
1.11490000e+01	-2.62798000e+01
1.61895000e-01	-4.92111000e+00
5.88663000e+00	-3.17864000e+00
-1.45924000e+01	-9.95622000e+00
-3.14265000e+00	-2.07102000e+01
-5.57724000e+00	-5.45722000e+00
-6.24009000e-01	-1.46886000e+01
-9.71009000e+00	-1.22165000e+01
2.78001000e+00	-1.92195000e+01
4.87757000e+00	-1.53019000e+01
7.59499000e+00	-2.14023000e+00
-1.63644000e+00	-1.19880000e+01
-2.64771000e-01	-2.22326000e+01
-5.88172000e+00	-6.22068000e+00
8.19309000e+00	-3.40662000e+00
-2.85324000e+00	-1.29825000e+01
-1.04315000e+00	-1.37513000e+01
1.89951000e+00	-1.63465000e+01
-1.56416000e+00	-1.11539000e+01
4.63018000e+00	-9.83019000e+00
7.31022000e-01	-1.04322000e+01
7.14031000e+00	-2.34178000e+01
3.70122000e+00	-4.37324000e+00
6.46497000e+00	-4.01399000e+00
1.35101000e+00	-5.58469000e+00
-2.91679000e+00	-3.75668000e+00
1.66248000e+00	-1.25512000e+01
-1.37024000e+01	-1.26243000e+01
-3.28198000e+00	-3.18375000e+00
-5.12684000e+00	-1.10022000e+01
-9.23388000e-01	-9.83684000e+00
-5.88337000e-02	-1.76068000e+01
-5.40362000e+00	-7.90816000e+00
6.90771000e+00	-7.64212000e+00
-1.15259000e+00	-1.75081000e+01
-1.66860000e+00	-5.59897000e+00
-3.18458000e+00	-1.39389000e+01
4.87890000e+00	-1.55779000e+01
5.50093000e+00	-1.26030000e+01
-1.00401000e+01	-2.42772000e+00
6.42882000e+00	-1.19267000e+01
-3.87947000e-01	-1.84966000e+01
-1.76975000e-01	-9.30164000e+00
-6.09638000e+00	-6.72154000e+00
-5.37081000e+00	-1.42457000e+01
-3.51283000e+00	-2.90372000e+00
-3.70116000e+00	-1.16456000e+01
-5.18208000e-01	-3.96857000e+00
-7.60339000e+00	-6.65630000e+00
-8.82506000e-01	-8.64587000e+00
-4.58562000e+00	-1.55176000e+01
3.16080000e+00	-8.42506000e+00
9.59239000e+00	-9.79163000e+00
-4.65457000e+00	-6.31926000e+00
-7.86292000e+00	-5.45274000e+00
-1.01543000e+01	-1.29974000e+01
4.27642000e+00	-1.56662000e+01
6.26966000e+00	-5.41308000e+00
-5.91563000e+00	-5.71251000e+00
-3.03405000e+00	-8.96723000e+00
-1.69287000e+00	-6.26015000e+00
-1.00564000e+00	-9.56180000e+00
5.43496000e+00	-1.75457000e+01
-2.42313000e+00	-1.06885000e+01
1.90468000e+00	-1.56491000e+01
-4.50626000e+00	-1.34541000e+01
-4.90257000e+00	3.64355000e-01
-2.57383000e-01	-4.77069000e+00
-2.08282000e+00	6.51883000e+00
-2.69983000e+00	-6.36112000e+00
1.96267000e+00	-2.79517000e+00
5.07459000e+00	-9.04698000e+00
7.29423000e+00	-1.38179000e+01
-5.93341000e+00	-1.14984000e+01
-6.57872000e+00	-1.60150000e+01
-2.19477000e+00	5.36090000e+00
1.94996000e+00	-6.41944000e+00
-6.59725000e+00	-1.33633000e+01
-8.44480000e+00	-1.00656000e+01
-3.17726000e+00	-2.58753000e+00
-1.79499000e+00	-7.19307000e+00
-1.30611000e+01	-2.68576000e+00
-2.47804000e-01	1.08082000e+00
2.43475000e+00	9.63545000e-01
1.79992000e+00	-8.96009000e+00
8.53321000e+00	-4.62429000e+00
-2.81498000e+00	-6.01236000e-01
-4.05719000e+00	-5.99438000e+00
-7.45959000e+00	-1.24270000e+01
-4.03597000e+00	-9.72507000e+00
1.34341000e+01	3.90985000e+00
7.57212000e-01	-4.54072000e+00
-1.53729000e+00	1.37452000e+00
-2.99525000e+00	-8.73657000e+00
1.22260000e+00	-7.66798000e+00
-9.64169000e-01	-1.25670000e+01
8.67263000e+00	-1.13052000e+01
9.50847000e+00	1.42938000e+00
-1.18679000e+00	-4.94430000e+00
4.33609000e+00	-6.89216000e+00
6.32407000e+00	1.80880000e+00
1.51033000e+00	-9.35774000e+00
6.97738000e+00	-5.68094000e+00
3.08897000e+00	-4.58329000e+00
-4.44080000e+00	-6.25122000e+00
5.42661000e+00	-9.41108000e+00
4.07974000e+00	-8.36762000e+00
2.04140000e+00	-2.10928000e-01
4.18143000e+00	-5.30730000e+00
-3.31405000e+00	2.63601000e+00
-2.11011000e+00	4.70578000e+00
4.64119000e+00	4.34226000e+00
8.27238000e+00	-2.46134000e+00
-8.09703000e-01	-1.37237000e+01
4.34730000e+00	-2.09803000e+01
4.77293000e+00	-9.49270000e+00
-6.62896000e+00	-3.10785000e+00
-9.76082000e+00	-6.97582000e+00
-9.58885000e+00	4.99645000e+00
4.77162000e+00	8.75615000e+00
-6.54444000e+00	8.44821000e-01
-8.55405000e+00	-7.12039000e+00
2.35844000e+00	-5.33544000e+00
3.02903000e+00	-9.09838000e+00
-2.79493000e+00	2.95805000e+00
-4.50800000e-01	-1.00762000e+01
2.61703000e+00	3.22989000e+00
-6.88167000e-01	2.93657000e+00
-2.08205000e+00	-2.10989000e+00
1.07911000e+00	-2.03182000e+00
-5.47772000e+00	-1.61077000e+00
-2.92585000e+00	3.28143000e+00
6.27601000e+00	-8.24756000e+00
-1.10552000e+00	-2.04613000e+00
8.32785000e-01	-1.75721000e+01
-4.89169000e+00	-7.84901000e+00
1.49594000e+00	-5.88230000e+00
2.00005000e+00	1.74059000e-02
9.01862000e+00	-6.64571000e+00
-1.93084000e+00	-8.52639000e+00
-4.88643000e-01	-4.16216000e+00
4.76934000e+00	-1.64209000e+00
-1.49814000e+00	6.91672000e-01
-1.10080000e+01	9.02083000e+00
-6.35861000e+00	7.25111000e+00
7.35618000e+00	-1.00003000e+01
-3.19820000e+00	6.73943000e-01
2.67124000e-01	-9.11951000e+00
5.34483000e+00	-1.49180000e+01
-9.62400000e-01	-7.88280000e+00
1.91419000e+00	3.28506000e-01
1.02189000e+01	-4.10501000e+00
-2.79538000e+00	5.38467000e+00
1.36521000e+00	-6.86782000e+00
-9.69983000e+00	-3.40438000e+00
8.11388000e+00	3.72785000e-01
-1.17435000e+00	-7.74407000e+00
3.96937000e-01	-7.05186000e+00
3.04295000e-01	-6.83955000e+00
8.34593000e+00	-6.71106000e+00
4.24883000e+00	-9.06640000e+00
-1.09869000e+00	-8.35383000e-01
6.50959000e+00	2.45465000e+00
4.76173000e+00	-7.80495000e+00
-3.91188000e+00	-4.00657000e+00
7.03821000e+00	-6.38109000e+00
-4.14106000e+00	2.81444000e-01
1.96554000e+00	-4.55485000e+00
5.55339000e+00	-6.60447000e+00
-5.67703000e+00	-3.02473000e+00
-5.86749000e+00	-2.20105000e-01
5.50869000e+00	-3.63460000e+00
-2.36092000e+00	-9.90782000e+00
1.45750000e+00	1.42104000e+00
2.44348000e+00	2.35796000e+00
9.27063000e-01	-1.05900000e+01
8.10348000e+00	-8.52203000e+00
1.67095000e+00	4.45679000e+00
-5.40308000e+00	-9.98259000e-01
6.90025000e+00	2.68770000e+00
7.29488000e+00	3.64126000e+00
-1.12555000e+01	-6.83088000e+00
4.42910000e+00	-5.04446000e+00
1.54895000e-01	1.14902000e+00
-2.54208000e+00	7.54232000e+00
-6.89211000e+00	-5.07715000e+00
4.26532000e+00	-6.81895000e+00
-5.56927000e+00	-7.40141000e-01
-8.44109000e-01	-1.23706000e+00
-8.39953000e+00	2.24263000e+00
4.49511000e+00	-8.83250000e-01
1.25683000e+00	1.30958000e+00
3.08842000e+00	3.96480000e+00
1.18506000e+00	-8.35882000e+00
5.64748000e+00	-1.82928000e+00
-1.21366000e+00	7.01569000e-01
4.20042000e+00	-3.49828000e+00
-4.39210000e-01	-1.96036000e+00
7.21896000e+00	-9.14891000e+00
-3.24421000e+00	-5.68665000e+00
9.23340000e+00	-9.47492000e+00
7.65751000e+00	1.14188000e+01
3.95774000e+00	-5.76777000e+00
2.36902000e+00	2.35966000e+00
1.49929000e-01	-4.41275000e+00
1.22214000e+00	-2.03946000e+00
-3.50392000e+00	1.34993000e+00
8.79035000e+00	-1.74398000e+00
-4.96755000e+00	-8.38339000e+00
1.61411000e+00	1.30774000e+00
9.59674000e+00	-4.90324000e+00
3.83881000e+00	-1.19041000e+00
-2.06858000e-01	2.48235000e+00
-5.85401000e+00	-1.54725000e+00
-1.51604000e+00	-3.89225000e+00
-1.61117000e+00	-8.30348000e-02
-8.60876000e+00	-1.26323000e+01
2.08263000e+00	-3.79866000e+00
-4.65674000e+00	-4.30816000e+00
-1.10336000e+01	-9.24704000e+00
-3.40008000e+00	-2.02452000e+00
5.01825000e-01	-9.23182000e+00
-4.90018000e+00	1.98736000e-01
3.73140000e+00	-1.56953000e+00
-3.31106000e+00	5.90010000e+00
-7.90735000e+00	-1.30414000e+01
4.23143000e+00	7.62875000e-03
7.23033000e+00	-4.53494000e+00
-3.80665000e+00	-6.50609000e+00
1.52667000e+00	4.23979000e+00
5.19234000e+00	-3.94734000e+00
-3.59089000e+00	-3.12332000e+00
-2.74187000e+00	-1.02285000e+00
1.89618000e-01	-5.14097000e+00
4.06644000e+00	2.54800000e+00
2.10504000e+00	4.71932000e+00
-6.00406000e+00	4.44670000e+00
-7.52890000e+00	1.72095000e+00
4.85370000e+00	-8.89061000e-01
6.94051000e+00	-7.05691000e+00
8.07415000e+00	-9.21568000e+00
2.11902000e+00	-7.79464000e+00
-3.27388000e+00	3.62843000e-01
-8.70748000e-01	-2.82992000e+00
7.83036000e+00	-6.85840000e+00
1.26689000e+00	-5.07601000e+00
-2.52420000e+00	-7.20308000e+00
1.85588000e+00	-2.19161000e+00
3.49239000e+00	-9.44559000e+00
-5.65746000e+00	-7.11032000e+00
-3.70026000e+00	-4.43053000e+00
-5.79066000e+00	1.03376000e+00
3.91760000e+00	-1.27641000e+01
-8.65434000e+00	-5.44312000e+00
-8.16698000e+00	-4.50673000e+00
-6.20758000e+00	1.40300000e+00
-5.34834000e-01	3.90060000e+00
2.03962000e+00	-2.95541000e+00
6.52079000e+00	-5.47211000e+00
-4.65166000e+00	9.02810000e+00
3.48239000e-01	-8.29277000e+00
-2.15831000e-01	9.04709000e+00
1.06900000e+01	-8.28213000e+00
-9.89240000e-01	-1.14263000e+01
-4.61012000e-02	1.80744000e+00
7.37985000e+00	-1.38535000e-01
7.69633000e+00	-4.65857000e+00
-5.53242000e-01	-3.77738000e+00
1.44486000e+00	-5.18530000e-01
-3.50899000e+00	-4.53947000e-01
2.17443000e+00	1.38384000e+00
1.75009000e-02	7.77825000e-01
7.32844000e+00	-5.30193000e+00
1.68127000e+00	-1.27621000e+00
-1.00156000e+01	-4.51466000e-01
-1.12984000e+00	-5.54641000e+00
4.61698000e+00	-4.87701000e+00
2.49854000e-01	-1.01520000e+01
8.16857000e+00	-7.54471000e-01
2.30130000e+00	-8.60169000e+00
-1.07618000e+00	7.27150000e+00
-3.73558000e+00	-6.46013000e+00
2.01672000e+00	-5.09744000e+00
-4.96911000e-01	-6.57706000e+00
-8.89931000e+00	-6.20790000e+00
1.52939000e+00	-1.52709000e+01
-1.29492000e-01	1.04173000e-01
-5.95340000e+00	-1.05250000e+01
1.08396000e+01	-9.16371000e+00
1.24001000e+00	-1.85854000e+00
3.92186000e+00	-3.21825000e+00
-8.64468000e-02	-5.26441000e+00
-3.01298000e+00	5.39071000e+00
-1.37071000e+00	4.73649000e+00
-1.08089000e+01	-4.62904000e+00
1.05703000e+00	-2.31050000e+00
-5.94422000e+00	3.28853000e-02
4.61939000e+00	9.47420000e-01
-3.69846000e+00	-8.91714000e-01
4.80185000e+00	-4.83973000e+00
7.84138000e-01	-2.99411000e+00
8.05795000e+00	-2.92001000e+00
1.07360000e+01	1.28834000e+00
-3.86858000e+00	-1.13715000e+01
5.33975000e+00	4.54976000e+00
-2.84965000e+00	-1.22957000e+01
-4.30604000e+00	1.19923000e+00
-6.45187000e+00	5.55540000e-01
-6.36662000e-01	-8.17695000e+00
-6.40453000e+00	-3.33744000e+00
1.36570000e+00	-3.69738000e+00
-1.47768000e+00	-4.52039000e+00
-3.99700000e+00	-2.10797000e+00
-3.53914000e+00	7.48986000e+00
-2.45500000e+00	7.29861000e+00
4.42380000e+00	-1.49023000e+00
-1.15111000e+00	-2.18211000e+00
-7.32812000e+00	3.06957000e+00
6.65556000e+00	-8.34245000e+00
-4.33585000e+00	1.50296000e+00
1.06352000e+01	8.85579000e+00
1.98083000e+00	3.27275000e+00
3.22207000e+00	6.82739000e+00
-3.83690000e+00	-1.99252000e+00
3.19910000e+00	4.52920000e+00
7.40094000e+00	-4.01734000e+00
1.36965000e-01	-5.74584000e-01
-5.29326000e+00	2.23062000e+00
2.16320000e+00	1.96341000e+00
-3.32409000e+00	-3.03183000e+00
-1.22751000e+01	-3.27005000e+00
6.96603000e+00	1.02635000e+01
-6.11166000e+00	-2.36014000e+00
3.73837000e-01	3.41494000e+00
3.27621000e+00	-1.25862000e+00
-1.14772000e+00	-3.89237000e+00
6.09597000e+00	-9.92479000e+00
-3.37679000e+00	-1.10117000e+01
-3.82774000e+00	-1.93955000e+00
6.88512000e+00	-1.47492000e+01
7.90271000e-01	-3.77853000e-01
2.88552000e+00	-4.75674000e+00
4.01024000e+00	-4.37703000e-01
-8.06534000e+00	4.18875000e+00
-1.43355000e+00	-2.86245000e+00
6.49402000e+00	-4.62006000e+00
1.51213000e+00	-1.37854000e+00
-3.80021000e+00	-1.08250000e+00
-5.47993000e+00	-5.39095000e+00
-1.07294000e+01	-7.07233000e+00
-2.16272000e+00	-1.08137000e+00
6.27282000e+00	-6.73282000e+00
3.02249000e+00	-6.38007000e+00
1.33054000e+00	9.53888000e+00
3.64244000e+00	-1.00758000e+01
1.09182000e+00	4.19742000e+00
3.32455000e-01	2.89796000e+00
-1.30333000e+00	9.44931000e-01
-2.46251000e+00	-6.43320000e+00
-5.70905000e+00	-1.16589000e+01
8.60334000e-01	1.46586000e+00
-2.99987000e+00	-1.18223000e+00
1.29263000e+00	-9.10641000e+00
9.49300000e-01	1.48775000e+00
-2.78052000e+00	-3.30987000e+00
-3.10873000e+00	-2.68626000e+00
7.96994000e-01	-7.72365000e+00
-2.51906000e+00	-1.01443000e+01
7.06763000e+00	-6.48648000e+00
-9.10412000e-01	1.05290000e+00
-4.46240000e+00	2.30901000e+00
7.80929000e-01	-1.43254000e+00
-2.54598000e+00	-1.40206000e+00
-3.24356000e+00	-7.17373000e+00
-3.19932000e+00	-1.10271000e+01
-6.93362000e+00	5.03573000e+00
-7.74012000e+00	1.98199000e+00
-1.54650000e+00	-7.67251000e-01
1.07763000e+01	-2.17977000e+00
-4.08776000e+00	5.60849000e+00
-4.98498000e+00	3.09346000e+00
8.10903000e+00	-1.23093000e+01
-8.17968000e-01	-5.87894000e+00
-2.76129000e+00	-5.39592000e+00
3.58932000e-01	-2.50849000e+00
8.42685000e-01	-2.15330000e+00
4.27252000e+00	-3.77323000e+00
2.64407000e+00	-3.89672000e+00
-3.73896000e+00	-3.01959000e+00
-3.86445000e-01	1.86803000e+00
-2.45211000e+00	1.09118000e+01
-7.63113000e+00	6.60547000e+00
1.40340000e+00	-1.20589000e-01
1.03137000e+01	4.71005000e-01
1.72812000e+00	-5.84197000e+00
7.06299000e+00	-2.04578000e+00
-4.00581000e+00	1.38497000e+00
3.89803000e+00	-3.84035000e+00
-8.63003000e+00	-5.95502000e+00
-6.79667000e+00	-5.02339000e+00
7.91601000e+00	-2.60511000e+00
2.13683000e+00	6.93334000e+00
2.57958000e+00	-2.40621000e+00
7.70893000e+00	-9.49241000e+00
7.14169000e+00	3.78287000e+00
1.95532000e-01	5.07833000e+00
-9.63031000e-01	-2.25424000e+00
4.19339000e+00	-2.86998000e+00
-1.77742000e+00	8.07807000e+00
-7.82606000e+00	1.39704000e+00
-1.09147000e+00	9.50144000e+00
-3.86992000e+00	-4.28582000e+00
1.69464000e+00	1.05769000e+00
-4.75477000e+00	7.83316000e+00
1.61623000e+00	8.21823000e-01
-1.18735000e+01	-8.21226000e+00
1.66975000e+00	2.96715000e+00
9.35731000e+00	9.80048000e+00
-1.04149000e+00	5.07490000e+00
5.07913000e+00	-3.70148000e+00
-6.42222000e+00	-5.14661000e+00
-3.84347000e+00	-7.34322000e+00
4.88207000e+00	1.58961000e+00
-9.26517000e+00	-7.35721000e+00
5.57167000e+00	-4.63900000e+00
-6.34241000e+00	-3.19346000e+00
-1.44431000e+00	6.42787000e+00
6.50880000e+00	9.85612000e-01
-3.56123000e+00	-6.11334000e+00
2.63407000e+00	2.53602000e+00
-3.29031000e+00	-2.77577000e+00
4.18217000e+00	-3.20395000e+00
2.42350000e+00	-8.38621000e+00
-2.30842000e+00	-1.76724000e+00
3.55749000e-01	-2.59160000e+00
3.61959000e+00	-1.69215000e+00
1.92910000e+00	-6.30511000e+00
2.17734000e+00	1.03337000e+00
-1.06922000e+01	2.91299000e+00
4.66160000e+00	-2.99567000e-01
2.27527000e-02	4.60594000e+00
-3.97184000e+00	5.12670000e+00
-6.88009000e+00	-5.28723000e+00
-4.31082000e+00	4.59960000e+00
4.12311000e+00	-2.04345000e+00
1.00100000e+00	1.95301000e+00
1.21340000e+00	1.70127000e+00
6.62319000e+00	2.26199000e+00
-1.42964000e+00	8.25247000e+00
-6.20242000e+00	1.03490000e+01
5.96607000e+00	1.32730000e+00
-8.70554000e+00	-4.51691000e+00
-7.14346000e+00	-4.30696000e+00
-5.87927000e+00	-1.20060000e+01
2.98877000e+00	-5.34177000e-01
2.10704000e+00	1.41379000e+01
-1.39264000e+00	-7.04136000e+00
-5.67688000e+00	-2.34291000e+00
3.92895000e+00	1.17301000e+00
1.70434000e+00	-1.34940000e+00
7.84690000e+00	-4.16854000e+00
-1.94626000e+00	1.43798000e+00
-3.07401000e+00	-7.02212000e+00
-4.29779000e+00	3.50416000e+00
-2.01794000e+00	-1.62259000e-02
-6.49768000e+00	-8.22757000e+00
-4.48172000e+00	-1.63807000e+01
-2.01012000e+00	1.22751000e+00
8.11783000e-01	6.88272000e+00
-3.15204000e+00	8.15785000e+00
-9.26907000e+00	-7.95688000e+00
6.34026000e+00	-7.50247000e+00
-1.65377000e+00	-4.07997000e+00
8.80858000e+00	-2.65131000e+00
-6.69158000e-01	-1.84121000e+00
3.19016000e+00	1.14606000e-01
-2.54218000e+00	4.28053000e-01
-2.09947000e+00	-1.11342000e+01
-6.38279000e+00	-3.80568000e+00
7.13952000e+00	3.34548000e+00
2.94204000e+00	2.22936000e-01
9.44021000e-01	-3.72546000e+00
1.87339000e+00	5.63105000e+00
5.52351000e+00	6.88643000e+00
-2.08829000e+00	-2.00785000e+00
-2.18898000e+00	9.67618000e+00
3.54162000e+00	2.11307000e+00
1.16767000e+00	-1.05439000e+01
-4.95510000e+00	9.93581000e+00
-4.04155000e+00	-3.11869000e+00
-6.25761000e+00	-3.10551000e+00
1.08197000e+01	-5.03922000e+00
1.45568000e+00	1.78720000e+00
-3.62885000e+00	7.08900000e+00
6.36973000e+00	-2.04616000e+00
-2.05915000e+00	-6.90561000e-01
2.81104000e+00	-3.35861000e+00
-1.96897000e+00	3.20846000e+00
-2.18905000e+00	-6.29929000e+00
-7.17478000e-01	-1.81952000e+00
-7.71219000e-01	-5.05148000e+00
-9.52333000e+00	-3.63404000e+00
-3.30527000e-01	4.37805000e+00
6.54056000e+00	3.10014000e+00
1.25951000e+01	-3.29789000e+00
1.46737000e+00	-1.22907000e+00
6.33395000e+00	4.04880000e+00
-7.51375000e+00	6.33382000e+00
3.59462000e+00	3.91869000e+00
-2.03387000e-01	3.37288000e+00
2.35854000e+00	-1.35834000e+00
-4.17206000e+00	-3.93801000e+00
7.02101000e+00	5.78771000e+00
-9.66970000e-01	-7.01947000e+00
-2.06772000e+00	6.18615000e+00
4.36018000e+00	-8.96452000e+00
-3.06603000e+00	5.98074000e-02
-1.89240000e+00	-4.27787000e+00
-5.63884000e-02	2.83868000e+00
-4.57003000e-01	-1.32576000e+00
-1.33628000e+01	-6.12550000e+00
-8.89673000e-01	9.76104000e-01
-7.79173000e+00	8.89207000e+00
4.85539000e+00	-7.34850000e+00
1.95984000e+00	3.50283000e+00
-4.62916000e+00	8.14681000e-01
-5.57584000e+00	4.70720000e+00
4.12223000e+00	1.48285000e+00
6.33804000e-01	-3.48974000e+00
6.52789000e+00	3.61509000e+00
1.26632000e+01	2.68925000e+00
4.92450000e+00	1.21404000e+00
6.77147000e+00	-2.29750000e+00
3.64841000e+00	-3.07383000e+00
-4.30899000e+00	-6.37535000e+00
-1.65897000e+00	7.43173000e+00
6.47826000e+00	-2.10749000e+00
-5.77714000e+00	6.61975000e+00
3.17563000e-01	-1.62776000e+01
-1.13790000e+00	3.77911000e+00
-4.55701000e-01	-2.01216000e+00
3.95286000e+00	-6.10854000e+00
5.30471000e+00	-6.36945000e+00
2.02410000e+00	4.68486000e+00
-5.42833000e+00	-4.60669000e+00
-1.22618000e+01	-3.00990000e+00
5.65437000e+00	-2.07054000e+00
3.01579000e+00	9.11113000e-01
-1.93350000e+00	-6.36639000e-01
2.36201000e+00	3.93020000e+00
5.26223000e+00	4.44860000e+00
-4.37466000e+00	-1.08366000e+00
3.12853000e+00	2.32869000e+00
1.81323000e+00	4.64779000e-01
-3.68452000e+00	-5.37794000e+00
2.97193000e+00	8.95296000e+00
-6.59620000e+00	4.67386000e+00
-6.29260000e+00	4.20788000e+00
-3.02573000e+00	1.95368000e+00
2.55544000e+00	-5.22894000e+00
1.56641000e+00	8.66862000e-01
-1.29504000e+00	5.78207000e+00
-2.96169000e+00	-7.14853000e+00
1.21542000e+00	-3.71110000e+00
-3.44985000e+00	7.62176000e-01
2.07240000e+00	1.33228000e+01
9.51032000e+00	2.37307000e+00
4.39506000e+00	-1.12990000e+00
-2.29295000e-02	-3.30455000e+00
8.12397000e+00	-6.65116000e+00
3.16841000e+00	9.19041000e-01
-2.98529000e+00	5.23449000e+00
-1.12089000e+00	-5.66534000e-01
-3.48022000e-01	-8.52962000e+00
-3.94214000e+00	-1.04026000e+00
7.45132000e+00	-2.20453000e+00
1.43642000e+00	-9.39695000e+00
6.57895000e+00	-6.51163000e+00
5.38160000e-01	-1.58284000e+01
6.19945000e+00	6.21548000e+00
-1.45750000e-01	1.60945000e+00
-1.30536000e+01	-4.01033000e+00
-7.82025000e+00	-2.90143000e+00
1.23935000e+01	-1.21465000e+00
4.02484000e+00	-1.97580000e+00
-1.63433000e+00	2.52861000e+00
3.00299000e+00	-1.57138000e+00
5.48608000e+00	3.15590000e+00
-4.42082000e-01	-1.96154000e-01
-4.95155000e+00	2.74980000e+00
3.19267000e+00	6.80145000e+00
-6.59503000e+00	-3.15144000e+00
-6.98126000e+00	-1.46152000e+01
-1.76572000e+00	9.67853000e+00
-2.42019000e+00	8.09528000e+00
2.14960000e+00	2.38104000e+00
4.34581000e+00	-1.82618000e+00
6.29008000e+00	7.51380000e+00
-9.63853000e+00	-7.25472000e+00
-6.25812000e+00	-2.92484000e+00
1.02896000e+01	6.50419000e+00
-1.13447000e+00	-6.64123000e+00
1.33582000e+00	8.25988000e+00
7.43035000e+00	3.99402000e+00
2.29240000e+00	4.94667000e-01
-7.03721000e+00	-8.57383000e-01
1.38547000e+00	-4.07091000e+00
-2.49796000e+00	6.56642000e+00
-2.79787000e+00	-6.33417000e+00
-2.07448000e+00	2.76694000e+00
4.18816000e+00	-1.06574000e+00
-4.45040000e+00	-7.75140000e+00
1.79915000e+00	5.38812000e+00
-7.25416000e+00	2.63546000e-01
8.08207000e-01	-4.32479000e+00
-1.35350000e+00	-1.40122000e+00
-3.02780000e+00	-2.58011000e+00
-1.18425000e+00	-9.85493000e-01
6.80810000e+00	4.25249000e+00
-7.69238000e+00	-1.33390000e+01
6.61982000e+00	-3.26021000e+00
-7.88953000e+00	3.29745000e-01
2.32119000e+00	1.10913000e+00
-2.02626000e+00	8.69094000e+00
-6.46903000e+00	-3.75920000e+00
-7.47899000e+00	-7.70435000e+00
1.71123000e+00	-3.80115000e+00
-4.63393000e+00	2.99364000e+00
-5.89990000e-01	-2.91842000e+00
-6.28755000e+00	3.86382000e-01
1.46531000e+00	-4.12543000e+00
-8.26332000e-02	2.34001000e-01
-6.35042000e+00	-6.50300000e+00
-3.64316000e+00	3.33841000e+00
2.77031000e+00	4.16496000e-01
-1.03739000e+00	1.97809000e+00
-4.64238000e-01	-1.59376000e+00
2.79032000e-01	-3.36575000e+00
-6.26884000e+00	-5.67605000e+00
8.88028000e+00	-2.77608000e+00
2.39218000e+00	-6.79924000e+00
1.76791000e+00	-1.44210000e+00
9.69782000e+00	2.23127000e+00
-6.15501000e+00	3.52690000e+00
2.39614000e+00	-1.03221000e+00
5.28061000e-01	6.41080000e+00
4.26519000e+00	1.02386000e+00
3.88785000e-01	4.63285000e-01
-7.71907000e+00	5.35411000e+00
-1.71962000e+00	7.91478000e+00
3.50881000e+00	7.48084000e+00
-2.76332000e+00	1.39942000e+01
6.21348000e+00	-1.45741000e+00
-3.30981000e-01	5.21791000e+00
-2.36481000e+00	-1.17251000e+01
3.55379000e+00	-2.32652000e+00
-4.60288000e+00	-3.88965000e+00
-6.74003000e+00	-2.04355000e+00
-4.89220000e+00	6.07832000e+00
-5.92734000e+00	1.58845000e+00
4.56216000e+00	4.00619000e-01
-1.51070000e+00	4.13390000e+00
1.36427000e+01	9.58528000e+00
-8.67305000e+00	1.61702000e+00
-4.09376000e+00	-2.73737000e+00
1.21961000e+00	3.27732000e+00
2.19678000e+00	1.97300000e+00
5.95888000e+00	4.99975000e+00
8.22619000e-01	1.17706000e+00
5.76703000e+00	1.54902000e+00
-3.04346000e+00	4.49749000e+00
4.31772000e-01	5.94367000e+00
-5.10404000e+00	-4.09369000e+00
-8.58131000e-01	-3.51444000e+00
2.82390000e-01	-7.19721000e+00
2.16876000e+00	8.27713000e-01
5.38329000e+00	-2.06231000e+00
4.95973000e-01	2.20670000e+00
2.26993000e+00	1.53516000e+00
-5.57709000e+00	5.41833000e+00
4.48480000e+00	-7.56266000e+00
-5.61250000e+00	2.61058000e+00
-2.27503000e+00	4.99086000e+00
4.80702000e+00	-1.15635000e+00
-1.91717000e+00	-4.92128000e+00
5.11014000e+00	1.71116000e+00
6.19801000e-01	-4.84417000e+00
-9.31946000e-01	-3.64188000e+00
-1.73200000e+00	3.68271000e+00
4.01046000e+00	2.27717000e+00
-8.41728000e-01	-5.69360000e+00
3.43999000e+00	2.60298000e+00
-6.73448000e+00	-5.79903000e+00
1.25229000e+00	-1.90992000e+00
-8.49607000e+00	-2.64881000e+00
-4.23040000e+00	-6.54646000e-02
1.04367000e+00	6.37579000e-01
-3.17290000e+00	1.42203000e+01
-1.45090000e-01	-2.77660000e+00
7.78159000e+00	2.40960000e+00
-2.57514000e+00	-1.32990000e+01
4.51307000e+00	4.43735000e+00
1.06533000e+00	-8.41393000e+00
-1.21605000e+00	6.22007000e+00
-1.01738000e+00	-1.09012000e+01
4.04316000e+00	2.52299000e+00
-7.55760000e+00	4.61681000e-01
4.74395000e+00	1.44371000e+01
-8.26264000e+00	-1.38875000e+01
8.26061000e+00	3.44504000e+00
6.17739000e+00	-1.02129000e+01
2.24138000e+00	5.00433000e+00
-1.62625000e+01	-1.74862000e+01
1.66132000e+01	3.05520000e+01
