Dangerplot_version	1.0
Number_of_points	2048
Sampling_frequency	2.00000000e+03
Transmitter_frequency	1.27788256e+08
Phi0	0
Phi1	0
PPM_reference	0
Real_FID	Imag_FID	
1.07369553e-02	3.31561896e-03
1.88995227e-02	7.41148461e-03
1.60925649e-02	7.56562455e-03
1.50310975e-02	6.74276939e-03
1.51530858e-02	5.84627874e-03
1.57537945e-02	5.92660252e-03
1.59821082e-02	6.57238951e-03
1.55895036e-02	7.11440388e-03
1.52023137e-02	7.08728051e-03
1.53767271e-02	7.11322902e-03
1.56811532e-02	7.59725366e-03
1.54295433e-02	8.58508237e-03
1.45187397e-02	9.19263903e-03
1.35011729e-02	8.83592665e-03
1.35128507e-02	7.89142493e-03
1.44040501e-02	7.66841043e-03
1.53574701e-02	8.47318582e-03
1.54400421e-02	1.00663444e-02
1.45156924e-02	1.11761894e-02
1.33531839e-02	1.14108371e-02
1.27828149e-02	1.11957183e-02
1.25866355e-02	1.11169992e-02
1.23476852e-02	1.13456063e-02
1.18943416e-02	1.15586296e-02
1.15185557e-02	1.12436637e-02
1.16068367e-02	1.09507879e-02
1.20691434e-02	1.11313323e-02
1.22643169e-02	1.21354433e-02
1.14732562e-02	1.30961910e-02
1.02561712e-02	1.32667432e-02
9.50918999e-03	1.25487959e-02
9.66562144e-03	1.18837971e-02
1.03565129e-02	1.19911861e-02
1.04959719e-02	1.29000470e-02
9.93388146e-03	1.36263799e-02
9.12214164e-03	1.37691628e-02
8.85126367e-03	1.34255616e-02
8.99741426e-03	1.35273328e-02
8.94727744e-03	1.42185064e-02
8.10226984e-03	1.48869539e-02
6.97224541e-03	1.47724617e-02
6.45867921e-03	1.39885563e-02
6.90974854e-03	1.35845495e-02
7.46888993e-03	1.39513938e-02
7.18150474e-03	1.50136100e-02
6.12555165e-03	1.56901777e-02
5.00419084e-03	1.52274668e-02
4.60458035e-03	1.43894665e-02
5.18286927e-03	1.39350910e-02
5.65382233e-03	1.44867040e-02
5.35881752e-03	1.54563030e-02
4.23239358e-03	1.59005448e-02
3.37278773e-03	1.53784333e-02
3.26055265e-03	1.47453966e-02
3.72086279e-03	1.47395935e-02
3.66528239e-03	1.53621053e-02
2.83920579e-03	1.58186723e-02
1.99916633e-03	1.54998666e-02
1.86102977e-03	1.48537867e-02
2.29689456e-03	1.47752361e-02
2.30911560e-03	1.55470669e-02
1.47769949e-03	1.63580514e-02
1.62227690e-04	1.61943510e-02
-6.70352369e-04	1.51763009e-02
-3.53635580e-04	1.41892396e-02
4.40459640e-04	1.41654229e-02
7.47413957e-04	1.48869939e-02
1.28645814e-04	1.57711320e-02
-9.72445472e-04	1.58381909e-02
-1.71893404e-03	1.53119732e-02
-1.80142454e-03	1.48002822e-02
-1.79610238e-03	1.48352226e-02
-2.14527454e-03	1.50986863e-02
-2.88110180e-03	1.48259168e-02
-3.23455781e-03	1.42183322e-02
-2.88895681e-03	1.37140648e-02
-2.45245546e-03	1.39792077e-02
-2.64833146e-03	1.48183061e-02
-3.76595464e-03	1.52567187e-02
-4.99052554e-03	1.47102503e-02
-5.36282454e-03	1.36316260e-02
-4.91541531e-03	1.29093062e-02
-4.29402664e-03	1.30041800e-02
-4.34166146e-03	1.35373529e-02
-4.94527863e-03	1.38043277e-02
-5.46036381e-03	1.36817731e-02
-5.56988176e-03	1.34996949e-02
-5.84806316e-03	1.38158137e-02
-6.71361806e-03	1.40837654e-02
-7.91057386e-03	1.36456629e-02
-8.62887129e-03	1.24225672e-02
-8.24124739e-03	1.10008670e-02
-7.12592527e-03	1.05681550e-02
-6.30126474e-03	1.12489080e-02
-6.55891187e-03	1.23638231e-02
-7.77266826e-03	1.27253933e-02
-8.86332989e-03	1.21756541e-02
-9.06477030e-03	1.11620808e-02
-8.68406240e-03	1.06264651e-02
-8.54885392e-03	1.07473563e-02
-8.84128083e-03	1.09273857e-02
-9.25388560e-03	1.06013278e-02
-9.25202202e-03	1.01472251e-02
-8.98154918e-03	1.01936236e-02
-9.10261925e-03	1.07436581e-02
-1.01548685e-02	1.10518755e-02
-1.14299068e-02	1.04661919e-02
-1.20077273e-02	8.92211683e-03
-1.13476422e-02	7.63399014e-03
-1.02756955e-02	7.31103588e-03
-9.75159928e-03	7.95167033e-03
-1.01533728e-02	8.51519499e-03
-1.08322594e-02	8.39977711e-03
-1.12620853e-02	7.79636856e-03
-1.10640042e-02	7.36203231e-03
-1.09933512e-02	7.41220964e-03
-1.14329308e-02	7.56646041e-03
-1.20350849e-02	7.13709695e-03
-1.22404620e-02	6.26440765e-03
-1.17297936e-02	5.61184064e-03
-1.10277683e-02	5.79294842e-03
-1.11362627e-02	6.52251998e-03
-1.21218534e-02	6.91475673e-03
-1.33006051e-02	6.24318095e-03
-1.36002982e-02	4.88227140e-03
-1.30618252e-02	3.83561198e-03
-1.22601092e-02	3.78027954e-03
-1.21532306e-02	4.03750222e-03
-1.24762934e-02	4.02039103e-03
-1.27718858e-02	3.52674676e-03
-1.25274342e-02	3.05723329e-03
-1.22180656e-02	3.03542125e-03
-1.23281851e-02	3.32482532e-03
-1.28789525e-02	3.12977727e-03
-1.32289268e-02	2.43564183e-03
-1.29856560e-02	1.60231756e-03
-1.23613244e-02	1.39897258e-03
-1.19967554e-02	1.79987238e-03
-1.24063417e-02	2.26181350e-03
-1.32167879e-02	1.95504702e-03
-1.36299077e-02	1.07498793e-03
-1.32724922e-02	2.42575916e-04
-1.26649868e-02	-7.91900020e-05
-1.24763502e-02	1.58875424e-04
-1.28733823e-02	3.12426972e-04
-1.33453822e-02	-4.35992348e-04
-1.30217746e-02	-1.28158624e-03
-1.22540658e-02	-1.65838876e-03
-1.18793603e-02	-1.34243036e-03
-1.21941334e-02	-1.05543504e-03
-1.27151525e-02	-1.41742197e-03
-1.26872594e-02	-2.36673956e-03
-1.19065391e-02	-2.95358128e-03
-1.12184761e-02	-2.61116796e-03
-1.12466486e-02	-1.84237456e-03
-1.20452754e-02	-1.71511644e-03
-1.27990292e-02	-2.55959132e-03
-1.27427410e-02	-3.69314081e-03
-1.19220288e-02	-4.27483348e-03
-1.12270135e-02	-4.24231170e-03
-1.11545669e-02	-3.81253823e-03
-1.15980636e-02	-3.89765948e-03
-1.18200546e-02	-4.54537990e-03
-1.14430850e-02	-5.14445314e-03
-1.08731939e-02	-5.26676560e-03
-1.07399486e-02	-5.03333425e-03
-1.10374717e-02	-5.09650586e-03
-1.12495236e-02	-5.75828506e-03
-1.06910961e-02	-6.56101014e-03
-9.69395973e-03	-6.62078476e-03
-9.11222678e-03	-5.99062257e-03
-9.58677288e-03	-5.35589783e-03
-1.04212714e-02	-5.42751607e-03
-1.08814379e-02	-6.44521276e-03
-1.03266770e-02	-7.40376115e-03
-9.46726743e-03	-7.70346867e-03
-9.11773369e-03	-7.48725934e-03
-9.01972782e-03	-7.46672647e-03
-8.98484234e-03	-7.77991675e-03
-8.52974411e-03	-8.11144616e-03
-8.00756551e-03	-8.04611295e-03
-7.80214416e-03	-7.47502549e-03
-8.32513440e-03	-7.23158848e-03
-9.03471000e-03	-7.81069044e-03
-8.90084635e-03	-9.00360290e-03
-7.87768140e-03	-9.80215240e-03
-6.66082837e-03	-9.58064198e-03
-6.13493985e-03	-8.69998615e-03
-6.67025987e-03	-8.00408330e-03
-7.33746355e-03	-8.31038132e-03
-7.41498731e-03	-9.09061730e-03
-6.98372582e-03	-9.69105307e-03
-6.35055592e-03	-9.76999849e-03
-6.13178918e-03	-9.67063941e-03
-6.11079112e-03	-9.93679184e-03
-5.59956394e-03	-1.04109831e-02
-4.74952674e-03	-1.04598962e-02
-4.10174998e-03	-9.83210187e-03
-4.27800277e-03	-9.07921325e-03
-5.11752348e-03	-8.91103130e-03
-5.58932545e-03	-9.69973672e-03
-5.22027211e-03	-1.07340310e-02
-4.13603848e-03	-1.11657949e-02
-3.32028652e-03	-1.07902698e-02
-3.16121359e-03	-1.01557709e-02
-3.39655741e-03	-9.95314308e-03
-3.51490406e-03	-1.02972351e-02
-3.08912527e-03	-1.06244199e-02
-2.65886006e-03	-1.04787070e-02
-2.63263937e-03	-1.02342069e-02
-2.89790216e-03	-1.03443842e-02
-2.94360216e-03	-1.10479007e-02
-2.12817383e-03	-1.17875515e-02
-8.83808709e-04	-1.16717089e-02
-1.42698656e-04	-1.07484022e-02
-4.45272017e-04	-9.81856324e-03
-1.20683771e-03	-9.61104594e-03
-1.56729168e-03	-1.02673490e-02
-1.03813456e-03	-1.09373173e-02
-3.03828187e-04	-1.09399185e-02
7.68361933e-05	-1.05404733e-02
1.80353527e-06	-1.03050154e-02
-4.97355140e-05	-1.04817860e-02
2.53822305e-04	-1.08112628e-02
9.00933635e-04	-1.07307211e-02
1.12729892e-03	-1.01993792e-02
9.07185313e-04	-9.85654164e-03
6.23950327e-04	-1.01737315e-02
8.36386636e-04	-1.08853085e-02
1.84480485e-03	-1.12603698e-02
2.77685397e-03	-1.06899496e-02
3.06053460e-03	-9.81200859e-03
2.57184892e-03	-9.25854221e-03
2.14487524e-03	-9.52627230e-03
2.42936192e-03	-1.01446733e-02
3.19156563e-03	-1.01471748e-02
3.70911136e-03	-9.56036150e-03
3.52510391e-03	-8.90892837e-03
3.03414534e-03	-8.87970347e-03
2.98441248e-03	-9.35872085e-03
3.61150131e-03	-9.74918064e-03
4.29910701e-03	-9.50603373e-03
4.43275552e-03	-8.82172957e-03
4.12518438e-03	-8.57375655e-03
3.85042094e-03	-8.91779549e-03
4.27772617e-03	-9.40263364e-03
5.13419975e-03	-9.41779651e-03
5.82179753e-03	-8.73827841e-03
5.74673153e-03	-8.00338294e-03
5.37498016e-03	-7.77354091e-03
5.23682451e-03	-8.02785438e-03
5.67037612e-03	-8.29706620e-03
6.24123309e-03	-7.98870157e-03
6.35750825e-03	-7.37655908e-03
6.08568871e-03	-7.02361297e-03
5.97076025e-03	-7.16355024e-03
6.19216450e-03	-7.32078543e-03
6.70838170e-03	-7.12979585e-03
6.80806395e-03	-6.60857558e-03
6.39590481e-03	-6.27382239e-03
6.00816775e-03	-6.56929845e-03
6.24481216e-03	-7.19226478e-03
7.27066584e-03	-7.45250797e-03
8.16078391e-03	-6.78689079e-03
8.28425586e-03	-5.73718082e-03
7.68270018e-03	-5.10801608e-03
7.13945739e-03	-5.22961607e-03
7.18216691e-03	-5.58577245e-03
7.71187153e-03	-5.71837416e-03
8.10324494e-03	-5.30008413e-03
8.12461693e-03	-4.83171875e-03
7.85611011e-03	-4.67559369e-03
7.94456247e-03	-4.77471063e-03
8.41214694e-03	-4.58139367e-03
8.63663293e-03	-3.95805622e-03
8.26999266e-03	-3.30572086e-03
7.56803621e-03	-3.32852127e-03
7.27315573e-03	-3.94332549e-03
7.83483963e-03	-4.54009743e-03
8.84269271e-03	-4.39263647e-03
9.43329558e-03	-3.46126314e-03
9.14490782e-03	-2.55122292e-03
8.52603652e-03	-2.31889542e-03
8.22647754e-03	-2.58134585e-03
8.60491488e-03	-2.70261476e-03
8.94835312e-03	-2.35021324e-03
8.90688412e-03	-1.74226484e-03
8.46662093e-03	-1.51442597e-03
8.24443158e-03	-1.83391524e-03
8.71107727e-03	-2.19932524e-03
9.32012219e-03	-1.86694204e-03
9.66589618e-03	-9.44782689e-04
9.10153706e-03	-7.49526516e-05
8.21241830e-03	3.18450257e-05
7.72522157e-03	-6.13453565e-04
8.12300853e-03	-1.12071354e-03
8.87204427e-03	-1.04840554e-03
9.30152275e-03	-4.04909078e-04
9.08417255e-03	1.55581511e-04
8.84252042e-03	4.26354818e-04
8.81891325e-03	5.02501731e-04
8.93891416e-03	7.31483335e-04
8.71729385e-03	1.22869597e-03
8.15113541e-03	1.41140400e-03
7.82625843e-03	1.13441062e-03
7.99958874e-03	6.90347108e-04
8.65007937e-03	6.73612987e-04
9.11980029e-03	1.36521319e-03
8.98375455e-03	2.27634306e-03
8.18756409e-03	2.64258729e-03
7.64295459e-03	2.40669283e-03
7.64177041e-03	2.00354354e-03
8.05546530e-03	1.95594155e-03
8.32422730e-03	2.44155503e-03
8.07455368e-03	2.88290158e-03
7.68464524e-03	3.00438562e-03
7.59863295e-03	2.82764714e-03
7.96586648e-03	2.90463259e-03
8.19022581e-03	3.42732249e-03
7.71874608e-03	4.15076409e-03
6.92930957e-03	4.31514112e-03
6.43530767e-03	3.80581315e-03
6.76360168e-03	3.22316098e-03
7.38838967e-03	3.41637619e-03
7.64831994e-03	4.14017215e-03
7.16436654e-03	4.77020117e-03
6.50604581e-03	4.81370650e-03
6.22201944e-03	4.40281304e-03
6.48981240e-03	4.27456014e-03
6.84437063e-03	4.57626162e-03
6.63263910e-03	5.19767543e-03
6.07872102e-03	5.41856978e-03
5.78237325e-03	5.15505858e-03
5.81162935e-03	4.88448655e-03
6.21733814e-03	5.11795236e-03
6.16878876e-03	5.78367338e-03
5.68783237e-03	6.28994359e-03
4.90412861e-03	6.18934678e-03
4.61372687e-03	5.63908275e-03
5.01137087e-03	5.27850725e-03
5.44522051e-03	5.68474969e-03
5.28453849e-03	6.33093901e-03
4.57330281e-03	6.59007486e-03
4.07324405e-03	6.26994530e-03
4.10614023e-03	5.82821574e-03
4.54079360e-03	5.81807736e-03
4.66248067e-03	6.27047336e-03
4.36989637e-03	6.69335481e-03
3.85880121e-03	6.75249938e-03
3.74132954e-03	6.44784188e-03
3.94036993e-03	6.51188334e-03
3.96215543e-03	6.94326684e-03
3.50850215e-03	7.35369697e-03
2.86271540e-03	7.39979232e-03
2.38908664e-03	6.98822271e-03
2.43709423e-03	6.55118190e-03
2.84089032e-03	6.53011166e-03
2.95905257e-03	6.99526491e-03
2.52646534e-03	7.42770452e-03
1.86068728e-03	7.33185420e-03
1.58828823e-03	6.94187591e-03
1.84797426e-03	6.60741050e-03
2.02914281e-03	6.81160437e-03
1.87492592e-03	7.16473116e-03
1.51370023e-03	7.21550127e-03
1.27101771e-03	6.89516310e-03
1.54754694e-03	6.70805154e-03
1.72427483e-03	7.13373069e-03
1.51359662e-03	7.76276365e-03
6.44000713e-04	8.11475329e-03
-2.04118594e-04	7.71137187e-03
-3.36073397e-04	6.93962164e-03
5.87419345e-05	6.50870427e-03
4.20910190e-04	6.87229261e-03
3.47890425e-04	7.33923959e-03
-2.07164339e-04	7.46976025e-03
-6.66368462e-04	7.18744565e-03
-7.01371580e-04	6.82681985e-03
-5.52988611e-04	6.75223442e-03
-6.38922327e-04	6.97414391e-03
-1.11898221e-03	7.08280178e-03
-1.47389504e-03	6.77630259e-03
-1.32797856e-03	6.28467090e-03
-8.50589189e-04	6.20833505e-03
-4.97527304e-04	6.77301083e-03
-9.42871789e-04	7.42076943e-03
-1.89778418e-03	7.55676301e-03
-2.59402115e-03	7.03599583e-03
-2.63631227e-03	6.29031938e-03
-2.20492948e-03	6.05219929e-03
-1.99996680e-03	6.26217062e-03
-2.25814059e-03	6.51511969e-03
-2.67174863e-03	6.38564816e-03
-2.70858034e-03	6.08013943e-03
-2.61619128e-03	6.01142412e-03
-2.60815048e-03	6.24549063e-03
-3.01187811e-03	6.42052386e-03
-3.51519627e-03	6.15499169e-03
-3.73879308e-03	5.55550633e-03
-3.40794190e-03	5.08133462e-03
-2.92985560e-03	5.14404522e-03
-2.90503423e-03	5.70737943e-03
-3.37337120e-03	6.05853647e-03
-4.05098684e-03	5.83008816e-03
-4.33124229e-03	5.34686726e-03
-4.06257855e-03	4.93820990e-03
-3.91945662e-03	4.99772886e-03
-4.05481551e-03	5.19448100e-03
-4.54911403e-03	5.10873832e-03
-4.71210293e-03	4.59537748e-03
-4.44889581e-03	4.21482883e-03
-4.05075960e-03	4.35834657e-03
-4.17006249e-03	4.84076375e-03
-4.77407128e-03	4.92686778e-03
-5.30489255e-03	4.51492798e-03
-5.39608905e-03	3.78952478e-03
-4.90157260e-03	3.42344120e-03
-4.57722880e-03	3.64254508e-03
-4.66668140e-03	3.93527374e-03
-5.06655686e-03	4.03431617e-03
-5.36531163e-03	3.73753672e-03
-5.30147972e-03	3.35896225e-03
-5.13989199e-03	3.25265783e-03
-5.19177038e-03	3.44212446e-03
-5.56375459e-03	3.39602539e-03
-5.88499382e-03	3.05374130e-03
-5.76836849e-03	2.48661800e-03
-5.33088809e-03	2.27336399e-03
-5.00107883e-03	2.58044689e-03
-5.39963366e-03	2.85514817e-03
-5.96420327e-03	2.82360311e-03
-6.21895306e-03	2.16946378e-03
-5.88017562e-03	1.62073469e-03
-5.31059084e-03	1.64177665e-03
-5.12615312e-03	2.03786418e-03
-5.60860056e-03	2.25055451e-03
-6.16050046e-03	1.95925334e-03
-6.21112110e-03	1.35661440e-03
-5.89015754e-03	1.06871233e-03
-5.61717339e-03	1.17680989e-03
-5.71626984e-03	1.36130536e-03
-6.07751310e-03	1.19445426e-03
-6.15861919e-03	7.31182867e-04
-5.89933153e-03	3.51337105e-04
-5.53225307e-03	4.27891675e-04
-5.53917745e-03	6.30225462e-04
-5.82419895e-03	7.28709972e-04
-6.17550965e-03	3.57037730e-04
-6.07829867e-03	-1.66200422e-04
-5.60242822e-03	-4.11421381e-04
-5.29455440e-03	-1.42406047e-04
-5.38423005e-03	2.21280236e-04
-5.93876839e-03	1.92925421e-04
-6.13628095e-03	-2.95576581e-04
-5.93948271e-03	-7.96811655e-04
-5.58516895e-03	-8.12123006e-04
-5.50757162e-03	-6.48492889e-04
-5.84339164e-03	-6.72012451e-04
-6.05821982e-03	-1.12031610e-03
-5.78374229e-03	-1.69595343e-03
-5.19164978e-03	-1.72492268e-03
-4.88263881e-03	-1.41114439e-03
-5.09759318e-03	-1.03231135e-03
-5.56330010e-03	-1.08824344e-03
-5.77493245e-03	-1.69537263e-03
-5.43589005e-03	-2.16083438e-03
-4.92156530e-03	-2.22759508e-03
-4.70429659e-03	-1.89834205e-03
-4.82505932e-03	-1.71040173e-03
-5.19900862e-03	-1.87157979e-03
-5.26404195e-03	-2.28110584e-03
-4.98322258e-03	-2.42717820e-03
-4.79075126e-03	-2.35846476e-03
-4.94813966e-03	-2.25868681e-03
-5.20598516e-03	-2.62048235e-03
-5.17510343e-03	-3.17922235e-03
-4.53625526e-03	-3.52735422e-03
-3.97999072e-03	-3.33504286e-03
-3.84715269e-03	-2.84854043e-03
-4.23657335e-03	-2.55841366e-03
-4.59542358e-03	-2.90371897e-03
-4.53113392e-03	-3.40597611e-03
-4.15559998e-03	-3.60921980e-03
-3.73598980e-03	-3.45927710e-03
-3.75675620e-03	-3.27550480e-03
-3.88763449e-03	-3.33740027e-03
-3.97655787e-03	-3.61240399e-03
-3.64212785e-03	-3.78947961e-03
-3.30915954e-03	-3.65011580e-03
-3.36494599e-03	-3.37268319e-03
-3.77055584e-03	-3.43990466e-03
-4.01192065e-03	-3.89407249e-03
-3.70356836e-03	-4.48730541e-03
-3.03552416e-03	-4.64305654e-03
-2.59769522e-03	-4.27833991e-03
-2.57910113e-03	-3.89103848e-03
-2.91644898e-03	-3.89752421e-03
-3.06769600e-03	-4.26682970e-03
-2.71007745e-03	-4.55210125e-03
-2.35108426e-03	-4.46229195e-03
-2.27680034e-03	-4.24374733e-03
-2.50578113e-03	-4.10219003e-03
-2.53156014e-03	-4.44774516e-03
-2.22576433e-03	-4.73556994e-03
-1.70549669e-03	-4.68924036e-03
-1.60469604e-03	-4.27781651e-03
-1.87545293e-03	-3.93005647e-03
-2.27536727e-03	-4.12211986e-03
-2.29499862e-03	-4.71601775e-03
-1.87276560e-03	-5.14872186e-03
-1.28504180e-03	-5.06506208e-03
-1.05619605e-03	-4.65291925e-03
-1.24841940e-03	-4.42559505e-03
-1.41940243e-03	-4.56355140e-03
-1.24261179e-03	-4.95799957e-03
-7.60958879e-04	-5.07317577e-03
-4.75294597e-04	-4.73991036e-03
-5.10434038e-04	-4.40265611e-03
-8.75456724e-04	-4.44551278e-03
-8.43477785e-04	-4.76613967e-03
-3.82725178e-04	-5.03330864e-03
-3.77140241e-05	-4.83038183e-03
2.69977827e-05	-4.41480614e-03
-2.38674475e-04	-4.20198357e-03
-5.25757147e-04	-4.46968107e-03
-3.12441523e-04	-4.88546956e-03
1.30493398e-04	-5.00872917e-03
4.53426153e-04	-4.71035019e-03
4.52563952e-04	-4.41842014e-03
3.14000295e-04	-4.44445806e-03
3.64157720e-04	-4.67013940e-03
6.53842115e-04	-4.78715776e-03
1.00144441e-03	-4.58794739e-03
1.02167064e-03	-4.34633670e-03
7.32105225e-04	-4.21199761e-03
6.68664463e-04	-4.40620398e-03
9.86204133e-04	-4.67221020e-03
1.43014838e-03	-4.60125133e-03
1.60609826e-03	-4.12278296e-03
1.40903820e-03	-3.82381026e-03
1.02174364e-03	-3.96373589e-03
1.02636870e-03	-4.33486560e-03
1.50249805e-03	-4.58782120e-03
2.04513618e-03	-4.34802426e-03
2.10439228e-03	-3.80494073e-03
1.87032879e-03	-3.67197301e-03
1.68390083e-03	-3.83650279e-03
1.84148678e-03	-4.02758829e-03
2.17107381e-03	-4.10857191e-03
2.37114052e-03	-3.70905478e-03
2.22951290e-03	-3.45474691e-03
2.01455364e-03	-3.50911915e-03
2.08233041e-03	-3.83543782e-03
2.46721623e-03	-3.91345471e-03
2.88683642e-03	-3.60859861e-03
2.89331772e-03	-3.16280639e-03
2.53511756e-03	-2.87204841e-03
2.22549355e-03	-3.18789552e-03
2.38476112e-03	-3.48611246e-03
2.82993494e-03	-3.57118179e-03
3.18141934e-03	-3.19183781e-03
3.10128834e-03	-2.82848650e-03
2.90138950e-03	-2.81283609e-03
2.87797721e-03	-2.90585402e-03
3.21551552e-03	-2.95899133e-03
3.38586164e-03	-2.63161701e-03
3.29749449e-03	-2.25795922e-03
2.95613380e-03	-2.28981511e-03
2.90776137e-03	-2.55612237e-03
3.15316860e-03	-2.79358239e-03
3.62069998e-03	-2.70557171e-03
3.79188498e-03	-2.17297976e-03
3.58523568e-03	-1.79718877e-03
3.19716148e-03	-1.76998018e-03
3.00527294e-03	-2.03272607e-03
3.32538853e-03	-2.21147016e-03
3.68778291e-03	-2.14944128e-03
3.81126325e-03	-1.83426042e-03
3.67579143e-03	-1.53929845e-03
3.48157343e-03	-1.64216000e-03
3.70994909e-03	-1.81307807e-03
4.04118327e-03	-1.58658938e-03
4.08074353e-03	-1.19787350e-03
3.79628618e-03	-7.89549202e-04
3.44026834e-03	-9.87592619e-04
3.33714276e-03	-1.25824998e-03
3.72577226e-03	-1.40175712e-03
3.99542181e-03	-1.10162247e-03
4.02413681e-03	-6.84414641e-04
3.71370115e-03	-5.03402203e-04
3.54090636e-03	-6.13364216e-04
3.60913225e-03	-8.79385276e-04
3.83889698e-03	-7.13603164e-04
3.90982674e-03	-4.15664690e-04
3.68611817e-03	-2.34706880e-04
3.53649817e-03	-3.82205879e-04
3.60401394e-03	-5.95046033e-04
4.01164778e-03	-5.91155607e-04
4.30282485e-03	-1.17560092e-04
4.19165054e-03	4.15967428e-04
3.69902933e-03	6.58669276e-04
3.33064958e-03	3.32776282e-04
3.39544634e-03	4.91907340e-05
3.78373428e-03	2.27082637e-07
3.99159687e-03	4.23221674e-04
3.73887341e-03	7.94722408e-04
3.34291533e-03	8.06926808e-04
3.29376734e-03	6.00687868e-04
3.53637291e-03	4.85729484e-04
3.75717576e-03	6.40021346e-04
3.60015803e-03	9.44132917e-04
3.39115993e-03	1.03868439e-03
3.18790344e-03	7.95289525e-04
3.46098980e-03	6.71692833e-04
3.73222027e-03	8.95432138e-04
3.79438023e-03	1.29119866e-03
3.48264421e-03	1.61853014e-03
3.15737096e-03	1.60915160e-03
3.01490631e-03	1.35746470e-03
3.22633074e-03	1.23664504e-03
3.42194224e-03	1.51427928e-03
3.31516494e-03	1.86263490e-03
2.98040616e-03	1.97155285e-03
2.74976413e-03	1.78563548e-03
2.78417696e-03	1.47251203e-03
3.14367795e-03	1.57124642e-03
3.19446111e-03	1.82625314e-03
2.89534195e-03	2.16651149e-03
2.58450489e-03	2.08706176e-03
2.57262797e-03	1.77424774e-03
2.82386970e-03	1.72791875e-03
3.07026529e-03	2.06183153e-03
2.90071545e-03	2.42363568e-03
2.55468721e-03	2.51617958e-03
2.29286752e-03	2.40586069e-03
2.33720662e-03	2.19805609e-03
2.50268658e-03	2.23775208e-03
2.54236162e-03	2.51521869e-03
2.31351634e-03	2.70299986e-03
2.06272630e-03	2.62318575e-03
1.92679523e-03	2.49948073e-03
2.12172745e-03	2.45773769e-03
2.19132123e-03	2.64634308e-03
2.03077006e-03	2.85824086e-03
1.69415155e-03	2.86032120e-03
1.54540513e-03	2.59089796e-03
1.74576580e-03	2.38632900e-03
2.06556311e-03	2.52496358e-03
2.10738950e-03	2.98241433e-03
1.69646903e-03	3.26100551e-03
1.27209921e-03	3.10460641e-03
1.17541768e-03	2.74325581e-03
1.38956960e-03	2.58004060e-03
1.60397391e-03	2.83173006e-03
1.49538298e-03	3.06509272e-03
1.14118005e-03	3.15427757e-03
9.72804555e-04	2.97251600e-03
1.01234659e-03	2.82996008e-03
1.15135650e-03	2.89273821e-03
1.06320286e-03	3.16677080e-03
7.32096727e-04	3.28807300e-03
5.22724411e-04	3.11912852e-03
5.39492641e-04	2.82797497e-03
8.06343160e-04	2.66303122e-03
9.96482209e-04	2.88655609e-03
8.15312669e-04	3.23894038e-03
4.85015160e-04	3.32350447e-03
1.56679394e-04	3.16907302e-03
2.55370222e-04	2.87800073e-03
4.48553183e-04	2.82526761e-03
4.33222973e-04	3.07546626e-03
1.20338162e-04	3.28572234e-03
-8.53085148e-05	3.03937052e-03
-9.41496910e-05	2.82396236e-03
1.12180540e-04	2.82101613e-03
2.31381244e-04	3.04590678e-03
-1.37442621e-05	3.30067589e-03
-4.53255692e-04	3.26336897e-03
-6.44703221e-04	2.94987555e-03
-4.82175063e-04	2.69700144e-03
-1.76001136e-04	2.70482199e-03
-1.45231752e-04	2.96046725e-03
-3.75318166e-04	3.10484157e-03
-7.25832186e-04	3.04770796e-03
-7.79448426e-04	2.82433908e-03
-7.07529369e-04	2.72097765e-03
-6.31588744e-04	2.79615051e-03
-7.87135563e-04	2.98210117e-03
-1.08168111e-03	2.91944761e-03
-1.22516754e-03	2.61930400e-03
-1.07106927e-03	2.38890061e-03
-8.02219321e-04	2.51988298e-03
-8.11125385e-04	2.76550488e-03
-1.10065844e-03	2.97738309e-03
-1.47251971e-03	2.71910755e-03
-1.47214823e-03	2.42284243e-03
-1.24225859e-03	2.23909691e-03
-1.02501165e-03	2.43830238e-03
-1.18495361e-03	2.60300515e-03
-1.49859767e-03	2.63015972e-03
-1.59723265e-03	2.39640777e-03
-1.52374373e-03	2.22554523e-03
-1.40294828e-03	2.30095326e-03
-1.49174395e-03	2.46558734e-03
-1.80066586e-03	2.40924302e-03
-1.97880855e-03	2.17097718e-03
-1.89955509e-03	1.95586029e-03
-1.72586599e-03	1.76309561e-03
-1.58071762e-03	1.90674746e-03
-1.69036887e-03	2.20759516e-03
-1.98310940e-03	2.12108670e-03
-2.17454764e-03	1.82730507e-03
-1.98350893e-03	1.55710999e-03
-1.71837257e-03	1.57861586e-03
-1.73772173e-03	1.86606508e-03
-2.01096758e-03	2.02299026e-03
-2.25431821e-03	1.77730480e-03
-2.24396074e-03	1.49636879e-03
-2.05205241e-03	1.45498500e-03
-1.95706147e-03	1.55797449e-03
-2.21327180e-03	1.72509928e-03
-2.49700807e-03	1.67218002e-03
-2.57235859e-03	1.31348462e-03
-2.34130025e-03	1.08023197e-03
-2.11344450e-03	1.14029681e-03
-2.12763366e-03	1.22904696e-03
-2.33344245e-03	1.32876972e-03
-2.55354401e-03	1.12984003e-03
-2.51785805e-03	8.83486879e-04
-2.28503696e-03	7.19891104e-04
-2.11864826e-03	8.61529494e-04
-2.19069049e-03	1.02914602e-03
-2.43672892e-03	1.04868494e-03
-2.55957246e-03	7.95837841e-04
-2.40212050e-03	5.91212593e-04
-2.28187907e-03	6.65243540e-04
-2.29030033e-03	8.21284601e-04
-2.59053987e-03	8.01528979e-04
-2.73812073e-03	5.41880378e-04
-2.59468704e-03	2.59624387e-04
-2.31914571e-03	1.20111050e-04
-2.23134411e-03	2.76595936e-04
-2.34778062e-03	4.92220919e-04
-2.60584918e-03	4.09966742e-04
-2.69595673e-03	1.43654222e-04
-2.47737463e-03	-1.36641218e-04
-2.25776737e-03	-1.22212703e-04
-2.22350797e-03	1.16076153e-04
-2.37759249e-03	1.80256058e-04
-2.55065411e-03	-1.50043488e-05
-2.48469505e-03	-1.79413968e-04
-2.25980603e-03	-2.86840019e-04
-2.17692321e-03	-1.52890396e-04
-2.31888168e-03	6.77616481e-06
-2.55838363e-03	-8.03645235e-05
-2.63183843e-03	-4.51276836e-04
-2.40700087e-03	-6.79357734e-04
-2.14175205e-03	-6.19373517e-04
-2.04268913e-03	-4.16412484e-04
-2.23283679e-03	-3.28791619e-04
-2.39542639e-03	-5.29494544e-04
-2.40182201e-03	-8.63633060e-04
-2.16098805e-03	-8.91798409e-04
-1.98740466e-03	-7.44863471e-04
-2.10873852e-03	-6.36232900e-04
-2.20296835e-03	-7.43957004e-04
-2.24337145e-03	-9.83015401e-04
-1.94846652e-03	-1.13292469e-03
-1.73676549e-03	-9.93121532e-04
-1.83932169e-03	-7.77621870e-04
-2.05263146e-03	-7.21887744e-04
-2.31488654e-03	-8.89906776e-04
-2.17555743e-03	-1.30278256e-03
-1.77597685e-03	-1.43313198e-03
-1.64191274e-03	-1.27811113e-03
-1.68916222e-03	-1.02613866e-03
-1.90735678e-03	-1.06044509e-03
-2.00506672e-03	-1.36223983e-03
-1.83839747e-03	-1.50605163e-03
-1.59651868e-03	-1.47405826e-03
-1.54223468e-03	-1.28524972e-03
-1.71982765e-03	-1.26172509e-03
-1.77778536e-03	-1.47654710e-03
-1.54958409e-03	-1.66804669e-03
-1.33090874e-03	-1.59907935e-03
-1.25984510e-03	-1.37206051e-03
-1.35909009e-03	-1.27995072e-03
-1.60301279e-03	-1.37747463e-03
-1.53424009e-03	-1.63236388e-03
-1.35159260e-03	-1.76495628e-03
-1.10039592e-03	-1.67709240e-03
-1.13612681e-03	-1.51131453e-03
-1.31418125e-03	-1.47302914e-03
-1.34474016e-03	-1.69500790e-03
-1.22068380e-03	-1.91967096e-03
-8.95979523e-04	-1.94494682e-03
-8.06103577e-04	-1.70097791e-03
-9.56685864e-04	-1.51793112e-03
-1.12448481e-03	-1.63516647e-03
-1.11451838e-03	-1.89183548e-03
-8.94276891e-04	-2.01390195e-03
-5.94943645e-04	-1.95074780e-03
-5.96801983e-04	-1.72946986e-03
-8.13052815e-04	-1.58299762e-03
-9.26408102e-04	-1.69984868e-03
-9.13276919e-04	-1.99957914e-03
-5.77567727e-04	-2.08619982e-03
-5.23459632e-04	-1.92698999e-03
-5.33666927e-04	-1.81226165e-03
-6.31146715e-04	-1.82396721e-03
-5.84373134e-04	-2.00902345e-03
-3.87252134e-04	-2.12448789e-03
-1.97933899e-04	-1.95209205e-03
-1.82544318e-04	-1.73789775e-03
-3.92135844e-04	-1.72119983e-03
-3.96667077e-04	-1.91208418e-03
-2.69158161e-04	-2.09231442e-03
1.65718666e-05	-2.07866915e-03
8.10136698e-05	-1.81063893e-03
-7.95359956e-05	-1.68637873e-03
-2.32597027e-04	-1.77133642e-03
-2.14071144e-04	-1.94563135e-03
1.63131263e-05	-2.13840907e-03
1.92364372e-04	-2.05482123e-03
2.52928468e-04	-1.86301756e-03
1.41061872e-04	-1.76584814e-03
5.79980551e-05	-1.90716702e-03
2.30002886e-04	-1.98576855e-03
4.11700690e-04	-2.01760069e-03
4.90006991e-04	-1.80292956e-03
4.15815099e-04	-1.70412729e-03
2.39213434e-04	-1.72638299e-03
3.40427097e-04	-1.86121138e-03
5.14634943e-04	-1.95627706e-03
7.40985444e-04	-1.79123553e-03
5.84358815e-04	-1.56538724e-03
4.63905832e-04	-1.52433186e-03
3.98221280e-04	-1.71841972e-03
5.21725160e-04	-1.89629465e-03
7.37214519e-04	-1.87472266e-03
8.77160812e-04	-1.65109546e-03
7.54889450e-04	-1.54164806e-03
6.15092518e-04	-1.59922545e-03
6.88425323e-04	-1.70491787e-03
9.49951005e-04	-1.75017980e-03
1.11033500e-03	-1.53353205e-03
1.05837756e-03	-1.35788403e-03
7.62975658e-04	-1.35271717e-03
7.47464714e-04	-1.50740799e-03
9.11920215e-04	-1.63883308e-03
1.12433569e-03	-1.58727402e-03
1.28715881e-03	-1.37859187e-03
1.16712111e-03	-1.17219787e-03
9.44541651e-04	-1.21628598e-03
9.60599980e-04	-1.31794112e-03
1.05869351e-03	-1.45432260e-03
1.22699887e-03	-1.30259909e-03
1.23484747e-03	-1.12967729e-03
1.10786106e-03	-1.12286804e-03
1.09386351e-03	-1.23575283e-03
1.26073824e-03	-1.37211650e-03
1.44059653e-03	-1.31710304e-03
1.55754504e-03	-1.10116543e-03
1.34130649e-03	-8.63463734e-04
1.21150073e-03	-8.91616801e-04
1.19645032e-03	-1.09506189e-03
1.44515594e-03	-1.07267429e-03
1.56323938e-03	-9.71826899e-04
1.54680456e-03	-7.41359952e-04
1.31224294e-03	-7.24391954e-04
1.27990393e-03	-8.44513997e-04
1.37622014e-03	-9.14476404e-04
1.47718645e-03	-7.99395959e-04
1.54559768e-03	-6.40269718e-04
1.36804651e-03	-5.81775850e-04
1.27113331e-03	-6.81304489e-04
1.35383196e-03	-7.88685225e-04
1.54375716e-03	-8.03971954e-04
1.70325639e-03	-6.39185542e-04
1.65753940e-03	-3.57825920e-04
1.51857431e-03	-3.06739239e-04
1.36134378e-03	-4.62473312e-04
1.48240000e-03	-5.57941617e-04
1.66330067e-03	-5.67869633e-04
1.70581136e-03	-2.89550080e-04
1.64728169e-03	-7.88464313e-05
1.45567220e-03	-1.43500700e-04
1.41723070e-03	-2.87094095e-04
1.58583152e-03	-3.50191433e-04
1.72989501e-03	-1.57056973e-04
1.58089609e-03	1.55985254e-05
1.36097497e-03	-9.26827852e-06
1.32127653e-03	-1.31799825e-04
1.48504542e-03	-2.51609716e-04
1.68587791e-03	-1.80787727e-04
1.70271890e-03	1.12253467e-04
1.52064255e-03	2.06134864e-04
1.38968334e-03	1.29580891e-04
1.40117342e-03	3.58684010e-05
1.56199653e-03	-2.68634903e-05
1.61543814e-03	1.82540563e-04
1.63088925e-03	3.94163129e-04
1.40588591e-03	3.72742070e-04
1.33406965e-03	3.49901093e-04
1.35999487e-03	2.02332973e-04
1.56815571e-03	2.09306643e-04
1.58057176e-03	3.77773249e-04
1.40013627e-03	5.32788341e-04
1.26128749e-03	5.18303248e-04
1.26035931e-03	3.47531663e-04
1.43012789e-03	3.62265419e-04
1.54476019e-03	4.73868742e-04
1.46556029e-03	7.12936104e-04
1.28356775e-03	7.10510009e-04
1.17265980e-03	5.76628430e-04
1.28075480e-03	4.78930480e-04
1.41795608e-03	5.71457029e-04
1.35766307e-03	7.05289654e-04
1.25082408e-03	8.25958967e-04
1.09128549e-03	7.52619118e-04
1.13543496e-03	6.06197631e-04
1.27157569e-03	6.47169014e-04
1.27966516e-03	7.86535908e-04
1.18978135e-03	9.09782306e-04
1.03657786e-03	9.59317491e-04
9.45818960e-04	8.15888285e-04
1.03672082e-03	6.67879474e-04
1.21283554e-03	7.68529309e-04
1.20717695e-03	9.45905398e-04
1.03282917e-03	1.09727168e-03
8.52525234e-04	1.07295671e-03
8.57296633e-04	9.29981994e-04
1.03433302e-03	8.49913165e-04
1.08602329e-03	1.03828579e-03
9.47841268e-04	1.18591404e-03
7.58474693e-04	1.13586127e-03
6.89942564e-04	1.04229921e-03
8.25800351e-04	9.09414899e-04
9.80415498e-04	1.04504440e-03
8.80652457e-04	1.26038492e-03
6.58157573e-04	1.30191189e-03
5.17539389e-04	1.16962125e-03
5.89525560e-04	9.93396738e-04
7.11029454e-04	9.61563142e-04
8.44295719e-04	1.11085887e-03
7.52333202e-04	1.29337213e-03
6.08382921e-04	1.37308193e-03
4.64611454e-04	1.27013715e-03
4.97202738e-04	1.13154389e-03
5.87108138e-04	1.13616965e-03
5.84178662e-04	1.30022899e-03
4.46929305e-04	1.38891430e-03
3.09270516e-04	1.26643595e-03
3.17781785e-04	1.15607469e-03
4.55227826e-04	1.13236299e-03
4.90772596e-04	1.24754803e-03
4.01517143e-04	1.42675894e-03
1.31333654e-04	1.29576586e-03
1.02480059e-04	1.18304044e-03
2.10940954e-04	1.06405094e-03
3.13765078e-04	1.15130947e-03
4.17822273e-04	1.33493554e-03
1.98264373e-04	1.35244126e-03
6.02614964e-05	1.30132411e-03
7.67252131e-05	1.14949606e-03
1.46205042e-04	1.19421526e-03
2.03870979e-04	1.31585961e-03
5.88982766e-05	1.45936967e-03
-1.35840295e-04	1.35893421e-03
-1.41576442e-04	1.22005888e-03
-5.92844408e-05	1.10041501e-03
3.31510964e-05	1.22709677e-03
2.51334859e-06	1.31305098e-03
-2.04762211e-04	1.34781562e-03
-3.53022682e-04	1.24685909e-03
-3.59911210e-04	1.13413320e-03
-1.39147058e-04	1.01972732e-03
-1.24451239e-04	1.22659025e-03
-1.70818443e-04	1.33267161e-03
-3.13099939e-04	1.21501670e-03
-3.51840223e-04	1.09329424e-03
-2.45617877e-04	1.07967644e-03
-1.57422503e-04	1.17630954e-03
-2.98119237e-04	1.27963489e-03
-4.47021681e-04	1.30255742e-03
-5.79667394e-04	1.14448008e-03
-5.24069648e-04	9.48103494e-04
-4.18683863e-04	9.18339123e-04
-3.61112005e-04	1.09378737e-03
-5.09049976e-04	1.16490049e-03
-6.38869184e-04	1.12778554e-03
-6.92749629e-04	9.88346408e-04
-6.02851622e-04	8.13324994e-04
-4.71531763e-04	8.48771131e-04
-4.53892542e-04	1.01016171e-03
-5.86197653e-04	1.06456620e-03
-7.03675789e-04	9.36710218e-04
-6.59047451e-04	7.97930756e-04
-5.17072447e-04	8.13829422e-04
-5.69391937e-04	9.17333993e-04
-6.81798789e-04	1.02068635e-03
-8.31614772e-04	9.33768693e-04
-7.99326866e-04	7.56260008e-04
-7.47239508e-04	6.79315010e-04
-6.59739831e-04	7.57269736e-04
-6.77061151e-04	9.02569969e-04
-8.20528716e-04	9.11628711e-04
-9.52859758e-04	7.84408126e-04
-9.19159793e-04	6.37020916e-04
-7.86666526e-04	5.70565579e-04
-7.69272505e-04	6.26137713e-04
-8.88809271e-04	7.06581865e-04
-9.33170493e-04	6.71095506e-04
-8.96785292e-04	6.11717813e-04
-8.05170450e-04	4.92553110e-04
-7.76787987e-04	5.62781526e-04
-8.22626695e-04	6.71241607e-04
-1.01337675e-03	6.90865912e-04
-1.07716583e-03	5.37499262e-04
-9.77580552e-04	3.85584659e-04
-8.17238819e-04	3.43724212e-04
-7.51707063e-04	4.86777484e-04
-8.64043075e-04	5.67732495e-04
-1.06195593e-03	4.93978441e-04
-1.14568917e-03	3.30170995e-04
-9.63217521e-04	2.03879274e-04
-9.09579918e-04	2.45081872e-04
-8.90817901e-04	4.13859234e-04
-9.80550074e-04	3.72721232e-04
-1.08422432e-03	2.31111073e-04
-1.03705504e-03	1.28505257e-04
-8.31760000e-04	1.35968934e-04
-8.23984679e-04	2.20215617e-04
-9.51734895e-04	3.92158807e-04
-1.05503178e-03	2.21429567e-04
-1.09058595e-03	8.88815121e-05
-1.00167247e-03	-4.75511551e-05
-8.66705202e-04	8.91461241e-07
-8.91121046e-04	1.24799451e-04
-1.01935572e-03	1.60900468e-04
-1.05687685e-03	5.97043618e-05
-1.05063478e-03	-7.81399649e-05
-8.83650617e-04	-1.35099137e-04
-9.20592342e-04	1.28524625e-05
-9.70274152e-04	5.77637475e-05
-1.08757219e-03	-4.72938700e-05
-1.00890081e-03	-1.83518699e-04
-9.14901786e-04	-1.77565817e-04
-7.57382833e-04	-9.63722123e-05
-8.49410251e-04	1.56573878e-06
-1.02114235e-03	-2.84788839e-05
-1.09330961e-03	-1.24529921e-04
-9.97764408e-04	-3.20534804e-04
-8.50430864e-04	-3.66574066e-04
-8.00651382e-04	-2.35600892e-04
-9.21620638e-04	-1.49082873e-04
-9.29450034e-04	-1.97210349e-04
-9.81800491e-04	-3.60001723e-04
-8.34408682e-04	-4.16376599e-04
-7.86649005e-04	-3.41552077e-04
-8.40139168e-04	-2.61513895e-04
-9.43107239e-04	-2.97672406e-04
-9.63422935e-04	-3.96831281e-04
-8.55079852e-04	-5.22707182e-04
-6.85874140e-04	-5.07651595e-04
-6.74797338e-04	-3.97352997e-04
-7.96323351e-04	-2.90665717e-04
-9.25542030e-04	-3.36807512e-04
-8.81414453e-04	-5.40097128e-04
-7.39457144e-04	-6.15931873e-04
-6.29421032e-04	-5.65101975e-04
-6.95735682e-04	-4.85866738e-04
-8.13450722e-04	-4.80478251e-04
-8.32211983e-04	-5.68843330e-04
-7.36867660e-04	-6.79354300e-04
-5.73556987e-04	-6.36209908e-04
-5.08525874e-04	-5.60476969e-04
-5.98849379e-04	-5.32462029e-04
-7.61743344e-04	-6.03544002e-04
-6.91581925e-04	-7.36513874e-04
-5.49032469e-04	-7.48971826e-04
-4.66167752e-04	-6.83319289e-04
-4.78676491e-04	-5.64534334e-04
-5.83218643e-04	-5.39392233e-04
-6.65534753e-04	-6.18136837e-04
-6.08535775e-04	-7.23912730e-04
-4.71228297e-04	-7.98553112e-04
-4.34406713e-04	-7.12473586e-04
-4.71788197e-04	-6.29620044e-04
-5.15285821e-04	-7.34799658e-04
-5.04820142e-04	-7.55757559e-04
-4.10668785e-04	-7.59119052e-04
-3.62242135e-04	-7.28114450e-04
-3.45214765e-04	-6.73362520e-04
-3.98720877e-04	-7.07756379e-04
-4.90298262e-04	-7.89768645e-04
-3.46057583e-04	-8.74674413e-04
-2.02960990e-04	-8.08230834e-04
-1.16970150e-04	-6.89047447e-04
-2.36383537e-04	-6.41627004e-04
-3.69473186e-04	-7.09096435e-04
-3.42193263e-04	-8.15103296e-04
-2.02468553e-04	-8.89962190e-04
-1.43176163e-04	-7.62995856e-04
-1.68494458e-04	-7.07577681e-04
-2.66096351e-04	-7.04277656e-04
-3.15790559e-04	-8.45835079e-04
-1.58826791e-04	-9.56799020e-04
-2.03108975e-05	-8.53518955e-04
-9.92400601e-07	-7.35047564e-04
-8.60159344e-05	-7.04034232e-04
-1.66747937e-04	-7.14937807e-04
-1.57731527e-04	-8.76302714e-04
-4.63517863e-05	-8.95497855e-04
7.80335395e-05	-8.09273391e-04
7.27547522e-05	-6.84970641e-04
-2.00112536e-05	-6.77222270e-04
-1.36758274e-04	-7.00928969e-04
2.67651922e-06	-8.52480414e-04
3.73169023e-05	-8.24041315e-04
1.02421713e-04	-7.33368797e-04
1.59516567e-05	-7.37128255e-04
1.32225814e-05	-7.41474389e-04
3.42987514e-05	-8.38219072e-04
2.10802900e-04	-8.73435580e-04
2.81626417e-04	-7.52728083e-04
2.00631359e-04	-6.12692093e-04
1.10961795e-04	-5.99677674e-04
5.59641267e-05	-7.33338180e-04
1.53322835e-04	-8.32421414e-04
3.13420576e-04	-7.68792233e-04
3.32745200e-04	-6.96658099e-04
3.38902901e-04	-5.80605934e-04
1.87335652e-04	-6.04220375e-04
2.21736555e-04	-7.16481823e-04
2.64519418e-04	-7.21657299e-04
3.11309239e-04	-6.35851698e-04
3.54037853e-04	-5.72327641e-04
2.65598122e-04	-5.39378729e-04
2.29087615e-04	-6.04427303e-04
3.24091874e-04	-6.80092780e-04
3.98273842e-04	-6.58688601e-04
4.40684787e-04	-5.67313749e-04
4.55542235e-04	-4.63299162e-04
3.22334847e-04	-5.94133860e-04
3.70171387e-04	-6.13690179e-04
4.33014386e-04	-6.82360667e-04
5.18194458e-04	-5.37269574e-04
4.41794517e-04	-4.14553622e-04
4.02104255e-04	-4.93427448e-04
3.81048128e-04	-5.51263336e-04
5.12906117e-04	-5.29518060e-04
5.40476118e-04	-4.79825336e-04
5.25973912e-04	-3.72100592e-04
4.50025429e-04	-3.89798224e-04
3.60095466e-04	-4.56820359e-04
4.31862951e-04	-5.02053939e-04
5.26675256e-04	-4.99728485e-04
6.42050931e-04	-4.25845879e-04
6.30504219e-04	-2.27037963e-04
4.70194645e-04	-2.85270566e-04
3.99123761e-04	-3.31911724e-04
5.39291534e-04	-4.26826475e-04
5.95138874e-04	-4.84546792e-04
6.35844248e-04	-3.37398524e-04
6.16301317e-04	-2.56016909e-04
5.00229944e-04	-2.54427345e-04
4.72340587e-04	-3.40108585e-04
5.68965741e-04	-3.48713627e-04
6.67854096e-04	-2.24087955e-04
6.44182903e-04	-1.88808321e-04
4.91112121e-04	-2.16754866e-04
4.83135576e-04	-2.81284971e-04
6.13351236e-04	-3.19929415e-04
7.25495978e-04	-2.79819244e-04
7.08391308e-04	-1.05913212e-04
5.82662353e-04	-7.42744160e-05
4.78955597e-04	-1.33594600e-04
5.77949570e-04	-1.44650796e-04
6.76394324e-04	-1.49403262e-04
6.78554061e-04	-1.20354845e-04
6.64143940e-04	-9.43609703e-05
5.54328493e-04	-3.85306121e-05
6.08356786e-04	-8.47887932e-05
6.52815448e-04	-1.53065106e-04
7.13656365e-04	-6.43089952e-05
7.14972324e-04	-7.25436621e-06
5.44028822e-04	7.82062634e-05
4.73614957e-04	1.27819476e-05
5.28116536e-04	-7.32171975e-05
6.64251333e-04	-1.08184453e-04
6.84356433e-04	-2.53035214e-05
6.25941844e-04	1.32017361e-04
5.72520192e-04	1.21705903e-04
5.47257194e-04	8.90153533e-05
5.73379511e-04	2.30693367e-05
6.79972291e-04	4.67186801e-05
6.74692215e-04	1.57986971e-04
5.46840311e-04	2.19596244e-04
4.74626373e-04	9.95250157e-05
5.73796104e-04	5.95286074e-05
6.35340286e-04	8.11175269e-05
6.49164314e-04	1.87250058e-04
5.89261239e-04	2.96220824e-04
4.78602160e-04	2.45014438e-04
4.28423169e-04	1.73168737e-04
4.64951387e-04	1.82684933e-04
5.93445846e-04	1.30967441e-04
6.11336494e-04	2.18757195e-04
5.55378967e-04	2.99650128e-04
5.05867007e-04	3.17871163e-04
4.98959795e-04	2.32211794e-04
5.35293366e-04	1.96963403e-04
5.66477305e-04	2.65225506e-04
5.32273320e-04	3.77565739e-04
4.05340601e-04	3.56056844e-04
4.45514161e-04	2.65510811e-04
4.57382761e-04	2.27570505e-04
5.80422115e-04	3.32548487e-04
4.99464979e-04	4.14808484e-04
3.93532740e-04	4.49535321e-04
3.39380786e-04	3.73271527e-04
3.79424280e-04	3.04271438e-04
4.33300593e-04	2.76755542e-04
4.54329333e-04	3.56894190e-04
4.50889522e-04	4.47817874e-04
3.94619885e-04	4.36657079e-04
3.10402567e-04	3.51932773e-04
3.82283091e-04	3.68031295e-04
4.42107208e-04	4.14710783e-04
4.18614945e-04	4.62860975e-04
2.68116186e-04	5.52846468e-04
2.13451771e-04	3.83040257e-04
2.57393636e-04	3.81611520e-04
4.04430379e-04	2.94255442e-04
4.65412188e-04	4.76362649e-04
3.41532257e-04	5.76427032e-04
2.03398915e-04	5.26659947e-04
1.63068384e-04	4.49614279e-04
2.18437330e-04	3.40015860e-04
3.22755426e-04	4.62484051e-04
2.83555797e-04	4.68628336e-04
2.23250318e-04	5.54590602e-04
1.82556149e-04	4.12828347e-04
2.34949184e-04	4.31222463e-04
2.63584370e-04	4.26147948e-04
2.05176926e-04	5.23660157e-04
1.84720600e-04	5.42632653e-04
9.51282273e-05	5.55411447e-04
6.38660713e-05	4.06939129e-04
1.46214865e-04	4.35602153e-04
2.08858546e-04	4.75628563e-04
1.70683314e-04	5.29592740e-04
1.23275575e-04	5.50619094e-04
-6.25194298e-05	5.44040871e-04
5.89496194e-05	4.53711516e-04
1.15218114e-04	4.17973672e-04
1.50661857e-04	4.54928930e-04
1.09700122e-04	5.58721949e-04
3.67093271e-05	5.88607276e-04
-3.36623234e-05	4.43744939e-04
4.27595660e-05	3.95269279e-04
1.55346192e-04	4.72273678e-04
3.96194082e-07	5.29430807e-04
-1.98114431e-05	5.46661497e-04
-1.19243028e-04	4.78683272e-04
-1.54142799e-05	4.20413126e-04
3.41505947e-05	3.98016069e-04
-1.29802247e-05	4.56621434e-04
-5.25541909e-05	5.43884700e-04
-1.11342619e-04	5.15776279e-04
-1.08305525e-04	4.60344047e-04
-1.16976713e-04	4.29969630e-04
2.91548349e-06	4.44488047e-04
-7.74870714e-05	4.48658830e-04
-1.06144893e-04	5.01090137e-04
-1.91858548e-04	4.44784120e-04
-1.50780703e-04	3.33307718e-04
-8.73330573e-05	3.97051044e-04
-6.18590857e-05	4.85498982e-04
-1.23695441e-04	5.54084603e-04
-2.25119642e-04	4.67310951e-04
-2.79259693e-04	4.03441925e-04
-1.44206861e-04	3.07694165e-04
-6.43643143e-05	3.48427071e-04
-1.40759352e-04	4.48040635e-04
-2.23466457e-04	5.00182854e-04
-2.91790493e-04	3.68748966e-04
-2.08380836e-04	3.43138847e-04
-1.96432651e-04	3.46302841e-04
-2.18640896e-04	3.49327718e-04
-2.56489730e-04	3.99281271e-04
-2.83090136e-04	3.41266481e-04
-3.07489885e-04	2.47028627e-04
-2.17328168e-04	3.44668020e-04
-1.79067662e-04	3.39551596e-04
-2.25342970e-04	3.75122530e-04
-3.15749057e-04	3.73797026e-04
-3.03101464e-04	3.17769387e-04
-2.79096246e-04	2.28298144e-04
-1.99135320e-04	2.20905509e-04
-2.27917277e-04	2.61268317e-04
-3.07716808e-04	3.60185688e-04
-3.93773313e-04	3.14898090e-04
-3.72011389e-04	1.78439484e-04
-2.89437856e-04	1.98154143e-04
-2.26621210e-04	2.57574138e-04
-2.66494637e-04	3.03531910e-04
-3.53074691e-04	3.09107505e-04
-4.05308616e-04	2.36112450e-04
-3.35196994e-04	1.15584407e-04
-2.21205351e-04	1.62875032e-04
-2.85551039e-04	2.04429583e-04
-3.20584368e-04	2.69826618e-04
-3.95130803e-04	2.56814907e-04
-4.01808997e-04	2.02478564e-04
-3.57784855e-04	1.26211336e-04
-3.47145251e-04	1.77457114e-04
-3.77393764e-04	2.01753617e-04
-3.82012571e-04	1.88546794e-04
-3.55578581e-04	1.03490864e-04
-3.57233512e-04	9.59819517e-05
-2.93151534e-04	8.32944861e-05
-3.09423864e-04	1.62217417e-04
-4.48123785e-04	1.27252468e-04
-4.82780044e-04	1.11482586e-04
-4.23880178e-04	7.68861137e-05
-3.38359037e-04	-2.76182836e-05
-2.82279507e-04	6.38274869e-05
-3.00425454e-04	1.48653140e-04
-3.74710333e-04	1.82864838e-04
-4.27129940e-04	1.73518638e-05
-4.32297296e-04	2.21794835e-05
-3.37525387e-04	-7.81003291e-06
-2.74256861e-04	8.86653434e-05
-3.80350044e-04	4.95270724e-05
-4.47060243e-04	1.12109037e-05
-4.55013855e-04	-1.49028565e-05
-3.34675191e-04	-1.07257700e-04
-3.47178604e-04	-2.94747460e-05
-2.97824066e-04	2.72758189e-05
-3.99697194e-04	1.57920076e-05
-4.55756817e-04	-4.84834964e-05
-2.83497677e-04	-8.70580916e-05
-3.10689822e-04	-1.26680985e-04
-2.83783331e-04	-3.30323055e-05
-2.78285617e-04	4.99160706e-05
-3.70972848e-04	-5.44563227e-05
-3.87576758e-04	-1.01537858e-04
-3.26331327e-04	-1.05948740e-04
-3.34230077e-04	-1.07341424e-04
-2.89742660e-04	-8.20880887e-05
-3.44704080e-04	-8.66655027e-05
-4.12672758e-04	-1.71698601e-04
-3.74469586e-04	-1.67682403e-04
-2.49629607e-04	-1.58880037e-04
-3.15461250e-04	-9.02216561e-05
-4.16568568e-04	-6.90655215e-05
-4.12433496e-04	-1.18286647e-04
-3.78134049e-04	-1.91054583e-04
-3.09640658e-04	-2.13050749e-04
-2.40392226e-04	-1.98695721e-04
-2.41142305e-04	-1.68772895e-04
-3.14673816e-04	-8.91022937e-05
-2.93366902e-04	-1.53257017e-04
-2.88151030e-04	-1.73356762e-04
-2.38404609e-04	-2.00845898e-04
-2.25570227e-04	-9.87889362e-05
-2.87844916e-04	-1.59602641e-04
-3.11639917e-04	-2.10121652e-04
-2.73780315e-04	-2.25488970e-04
-2.55679304e-04	-2.53581733e-04
-1.30259970e-04	-1.76574424e-04
-2.03417832e-04	-1.88803184e-04
-2.91915319e-04	-1.49421074e-04
-3.39038554e-04	-2.22532501e-04
-1.71249863e-04	-2.96541897e-04
-1.69303414e-04	-3.15539102e-04
-1.92524501e-04	-1.90652296e-04
-1.82334712e-04	-1.49838685e-04
-2.46786338e-04	-2.32322462e-04
-2.30859237e-04	-2.52008525e-04
-1.60285723e-04	-2.88724317e-04
-1.33664260e-04	-2.32361999e-04
-1.16063238e-04	-1.47495593e-04
-2.09872713e-04	-1.98134556e-04
-2.77139916e-04	-2.88331095e-04
-1.73073728e-04	-3.34711687e-04
-1.42760415e-04	-3.94894189e-04
-7.94366133e-05	-2.24323710e-04
-1.38903706e-04	-2.11811974e-04
-1.86632184e-04	-2.21365830e-04
-1.92626569e-04	-3.21727624e-04
-1.55642163e-04	-3.06803646e-04
-7.42452685e-05	-3.03254958e-04
-1.11942245e-04	-2.20393515e-04
-7.14197886e-05	-3.10584495e-04
-1.03447994e-04	-2.69441342e-04
-7.84774747e-05	-3.06769856e-04
-5.91990974e-05	-2.72795092e-04
-4.48655555e-05	-2.22749630e-04
-9.83290884e-05	-1.88260310e-04
-1.54874491e-04	-3.00995191e-04
-1.30684086e-04	-2.58422369e-04
-3.01085347e-05	-3.56185657e-04
-1.01870946e-05	-2.51386838e-04
1.32562818e-05	-2.23549418e-04
-9.99559052e-05	-2.09910286e-04
-8.66774499e-05	-2.69559037e-04
-5.89732299e-05	-3.61753453e-04
-1.11765075e-05	-3.22363660e-04
3.71763563e-05	-2.28230536e-04
-1.48064246e-05	-2.19917623e-04
-7.11766479e-05	-2.96927727e-04
-6.70149893e-06	-2.93130346e-04
7.58731549e-05	-3.50815273e-04
6.01102074e-05	-2.58563115e-04
2.63651564e-05	-2.41109447e-04
-3.89970264e-05	-2.35835803e-04
-7.20595272e-05	-2.85739341e-04
1.74644028e-05	-3.69437679e-04
1.00088670e-04	-3.18878709e-04
6.94947666e-05	-2.72220641e-04
4.15120048e-05	-2.52144935e-04
-3.94165399e-05	-2.66137067e-04
2.35946936e-06	-3.09874100e-04
9.14458360e-05	-3.28230119e-04
9.31507093e-05	-3.29480390e-04
7.11268804e-05	-2.33382307e-04
7.50344116e-05	-2.19285444e-04
3.28363531e-05	-2.59753200e-04
9.37904406e-05	-2.72697915e-04
1.72209751e-04	-2.80629931e-04
1.79395909e-04	-1.87487618e-04
9.89187683e-05	-1.75059438e-04
1.22090732e-05	-2.27942728e-04
1.16108749e-04	-3.17773171e-04
1.42504548e-04	-2.48328201e-04
1.72332700e-04	-1.88327394e-04
1.63206976e-04	-1.34741393e-04
8.26978212e-05	-1.84581644e-04
1.38184521e-04	-2.23913899e-04
1.00971389e-04	-2.31440630e-04
2.17141787e-04	-2.71673431e-04
1.61099117e-04	-1.71060194e-04
1.52522131e-04	-1.47772749e-04
8.79915606e-05	-2.10390455e-04
1.52953944e-04	-2.43888338e-04
2.41518719e-04	-2.08179612e-04
2.15803477e-04	-1.01219972e-04
1.44561098e-04	-5.85880116e-05
6.71069283e-05	-1.25403414e-04
1.24759928e-04	-2.20924019e-04
1.55624337e-04	-2.49530538e-04
2.11627412e-04	-1.83757133e-04
2.18198198e-04	-1.28675776e-04
2.03513162e-04	-8.98301150e-05
8.83145331e-05	-1.09327557e-04
1.58664552e-04	-1.59349482e-04
2.07866382e-04	-2.01890754e-04
1.89125174e-04	-1.12915426e-04
2.24937350e-04	-9.18273363e-05
1.72824759e-04	-1.26302140e-04
1.97045301e-04	-1.64052908e-04
1.71699212e-04	-1.62412325e-04
2.33171188e-04	-1.02893304e-04
2.44755123e-04	-7.29375897e-05
2.18775866e-04	-6.00579697e-05
9.74049835e-05	-4.16019902e-05
1.61901364e-04	-1.36835471e-04
2.23562442e-04	-1.37929659e-04
2.65115406e-04	-9.35394419e-05
2.14223051e-04	-8.08277982e-05
1.39556039e-04	-7.62749260e-05
1.95269138e-04	-5.57343847e-05
2.19875437e-04	-8.31132274e-05
1.97368034e-04	-6.35821780e-05
1.96600973e-04	4.57883289e-06
2.11571038e-04	7.53568020e-06
1.70973493e-04	-6.64196850e-05
2.15319524e-04	-3.95870302e-05
2.11119681e-04	-8.71653392e-05
2.16739281e-04	-1.62708729e-05
2.27078621e-04	1.73299850e-06
1.71947293e-04	4.44747602e-05
1.68811690e-04	-4.85108503e-05
1.63642006e-04	5.64807306e-06
2.16943474e-04	-7.95588858e-06
1.57967806e-04	-1.36353610e-05
2.20362766e-04	2.81815246e-05
1.46976745e-04	1.30186236e-05
2.13944833e-04	-2.33911232e-05
3.09321273e-04	-6.99241500e-05
2.44324503e-04	1.85488207e-05
1.75745387e-04	8.74603575e-05
1.24645943e-04	6.06367175e-05
1.64411686e-04	5.44058203e-05
1.80645613e-04	-2.82539695e-05
2.27786513e-04	5.72526551e-06
1.89844272e-04	1.14259121e-04
1.55652015e-04	1.00206817e-04
1.20399549e-04	8.90109004e-06
1.79003313e-04	2.31261038e-05
2.19615118e-04	-1.95435859e-05
2.02576281e-04	2.68847944e-05
1.69709936e-04	9.14110715e-05
1.54441223e-04	8.11677091e-05
9.97257303e-05	6.19194907e-05
2.03846794e-04	1.26171108e-05
1.88084581e-04	5.43686474e-05
1.52674183e-04	1.34723057e-04
1.29358159e-04	1.28807165e-04
1.27888110e-04	3.62095307e-05
1.50102846e-04	5.14974599e-05
2.01957693e-04	-1.19319702e-05
1.62856639e-04	7.54893990e-05
1.48394494e-04	1.96275490e-04
1.33014459e-04	1.38276955e-04
1.41168639e-04	1.01241007e-04
1.44287129e-04	3.71502065e-05
1.63544464e-04	1.07291082e-04
2.02582087e-04	1.45178667e-04
8.32783699e-05	1.29087915e-04
7.15305578e-05	7.11245666e-05
1.58949784e-04	4.85210694e-05
1.53370856e-04	5.20426329e-05
1.65309684e-04	1.56151713e-04
8.22756629e-05	1.68377024e-04
2.49780624e-06	1.25996405e-04
7.61444971e-05	1.53291330e-04
8.09473495e-05	1.20063763e-04
1.09448010e-04	9.82863858e-05
1.14503862e-04	1.32383764e-04
9.69759712e-05	1.36277813e-04
8.86027265e-05	1.53252156e-04
1.78990413e-05	1.34943213e-04
1.06238636e-04	1.32669840e-04
1.08404201e-04	1.19995617e-04
5.62489695e-05	1.56004971e-04
2.31777194e-05	1.06803011e-04
6.45791079e-05	9.03449545e-05
9.22309700e-05	1.07393324e-04
1.27846593e-04	6.87199863e-05
1.46502891e-04	1.81312818e-04
4.11621731e-05	1.97243877e-04
1.86213638e-05	1.23123245e-04
2.80815584e-05	1.15332186e-04
2.97065799e-06	9.29228117e-05
1.02023267e-04	2.04054653e-04
1.72368691e-05	1.52265973e-04
7.50140680e-05	1.74463945e-04
4.77708527e-05	1.59161646e-04
3.34838478e-05	1.46688108e-04
7.80184782e-05	1.49320811e-04
2.14066058e-05	1.59404517e-04
1.20377954e-05	1.62962417e-04
2.05190881e-05	1.40796750e-04
5.60128756e-05	1.12046342e-04
5.13225023e-05	1.32683621e-04
4.85355740e-05	2.00544135e-04
1.69415252e-05	1.52025314e-04
3.92166767e-05	1.49446249e-04
-5.22177506e-05	1.20121280e-04
3.00462307e-06	6.52708404e-05
2.91328706e-05	1.27404724e-04
8.59807624e-05	1.85420970e-04
4.22052835e-07	1.23789301e-04
-1.10635547e-05	1.75306079e-04
-2.52656828e-05	1.83951168e-04
5.40452129e-06	1.19562479e-04
-3.11371550e-05	1.23886130e-04
-5.54034705e-06	1.65153513e-04
-2.14031334e-05	1.49396132e-04
-2.29677535e-05	1.45667364e-04
1.31498691e-05	1.10160545e-04
-1.85623903e-05	1.53210291e-04
-2.58546006e-05	1.49407220e-04
-5.97445978e-06	1.61596923e-04
-8.47529809e-05	1.31028937e-04
-6.07625698e-05	1.29532316e-04
2.20062193e-05	1.14042399e-04
1.08082404e-05	1.31495195e-04
-3.17229278e-05	1.15337149e-04
-8.67944036e-05	1.28671236e-04
-6.26217079e-05	1.20382363e-04
-2.80191798e-05	9.14590637e-05
8.77576986e-06	1.25589693e-04
-1.93424239e-05	1.97207002e-04
-5.35525687e-05	1.92471591e-04
-5.33820494e-05	1.13550595e-04
-4.64926306e-05	7.26294602e-05
-1.87941350e-05	7.93674990e-05
-5.21519978e-05	1.08272019e-04
-4.65064768e-05	1.49371481e-04
-7.36181610e-05	1.38733580e-04
-8.66818591e-05	9.33509800e-05
-5.96351929e-05	8.44138776e-05
-4.30727378e-05	9.34292693e-05
-4.40483491e-05	1.35309252e-04
-1.21914418e-04	8.83931134e-05
-6.80824669e-05	9.60410252e-05
-4.86076606e-05	9.61909391e-05
-6.60294027e-05	6.26199544e-05
-7.24476558e-05	8.28636257e-05
-1.22239217e-04	1.12090682e-04
-1.23878708e-04	1.24061946e-04
-7.96805616e-05	4.56511880e-05
-9.94706788e-05	5.00471506e-05
-7.60918338e-05	2.16893477e-06
-7.08368170e-05	5.98544284e-05
-8.78483552e-05	1.20796081e-04
-9.44741332e-05	7.07738291e-05
-8.37085972e-05	6.55568365e-05
-7.65184814e-05	3.51108392e-05
-6.92690810e-05	6.35310571e-05
-1.17893673e-04	1.08299384e-04
-1.61348187e-04	3.84493360e-05
-1.17796837e-04	2.51138517e-05
-6.57710334e-05	9.03840046e-05
-3.00767879e-05	9.14226403e-05
-7.63891148e-05	1.16587005e-04
-7.44557765e-05	5.30606267e-05
-6.58280915e-05	7.56801164e-05
-1.31301829e-04	3.92937472e-05
-5.10593345e-05	2.56482072e-05
-1.10748166e-04	5.14008570e-05
-1.03737650e-04	7.00912860e-05
-1.08670240e-04	4.09963322e-05
-1.19772492e-04	-4.13948910e-05
-4.97501787e-05	2.66479256e-05
-5.18294655e-05	6.14346864e-05
-7.35993090e-05	-4.39887845e-05
-1.48105639e-04	3.52032293e-05
-6.36031837e-05	4.75535853e-06
-1.31395238e-04	-3.20750041e-05
4.52285894e-06	-1.25385177e-05
-5.57401509e-05	1.84552046e-05
-9.20749226e-05	1.74970846e-05
-1.48186838e-04	8.30608551e-05
-1.67349892e-04	-6.28225825e-06
-6.25150133e-05	6.35045581e-08
-8.19226407e-05	-2.58588516e-05
-5.63391695e-05	-5.47650416e-07
-1.20097000e-04	9.65866639e-06
-9.08514194e-05	-2.17897395e-05
-7.96577151e-05	1.77031179e-05
-7.53236818e-05	2.79112937e-05
-1.03618258e-04	1.60044292e-05
-1.31924229e-04	6.25714165e-08
-6.50229704e-05	-3.46437446e-06
-1.45686703e-04	-1.03244111e-05
-7.52707201e-05	1.92136813e-05
-3.00213305e-05	-1.91500530e-05
-4.89263948e-05	8.52964149e-06
-8.02416398e-05	2.56865223e-06
-9.59501849e-05	-2.33291594e-05
-9.18729711e-05	-1.74236211e-05
-1.07722182e-04	-5.82604953e-05
-7.17020157e-05	4.65157245e-06
-4.79692499e-05	-7.59274553e-06
-7.30387983e-05	-1.15654620e-05
-7.67222082e-05	-5.42197631e-05
-9.97623283e-05	-3.02960962e-05
-6.50733418e-05	-5.16844157e-05
-1.10509231e-04	2.30666119e-05
-7.92765495e-05	-1.44352307e-05
-1.07370695e-04	-4.57814131e-05
-6.06993235e-05	-8.21048379e-05
-1.03553233e-04	-2.46553100e-05
-1.12351872e-05	-3.75813033e-05
-3.06310467e-05	-1.09729199e-05
-7.77601672e-05	-1.06568605e-05
-5.51579142e-05	-4.49013387e-05
-4.34416070e-05	-2.56701751e-05
-3.80970087e-05	-7.91507846e-05
-4.81394163e-05	-9.32182320e-06
-7.79504553e-05	-2.97526130e-05
-8.38126944e-05	-6.02696891e-05
-7.30329848e-05	-1.06512925e-04
-2.16806638e-05	-3.31148985e-05
-7.22026562e-06	-2.42119477e-05
-3.38755744e-05	3.96832911e-06
-1.19246761e-04	-2.97510433e-05
-5.24856769e-05	-5.89359151e-05
-2.54763145e-05	-1.28926127e-04
-3.86587490e-05	-8.66881310e-05
-6.59536163e-05	-4.56947200e-05
-7.36064248e-05	-3.34589640e-05
-9.35705320e-05	-1.46731501e-04
-5.00060669e-05	-1.24266284e-04
-6.35936376e-05	-3.36742451e-05
-2.40923764e-05	-4.85716591e-05
-6.85919076e-07	-1.95987941e-05
-5.13379491e-05	-6.78128708e-05
-5.96398058e-05	-9.01609601e-05
-1.90263454e-05	-1.02848877e-04
1.22956026e-05	-1.29019259e-04
3.18907541e-06	-2.92559107e-05
-5.95494530e-05	-8.47494448e-06
-6.02682703e-05	-4.61813324e-05
-3.11587137e-05	-5.14331223e-05
-1.89825842e-05	-4.58771974e-05
5.92023844e-06	-2.37183194e-05
-5.34507562e-05	-7.09578308e-05
-9.52914070e-06	-7.25639911e-05
-1.82371277e-05	-5.46866395e-05
-3.27556845e-05	-1.20013450e-04
-5.11232283e-05	-7.21058605e-05
2.26365555e-05	-7.87631216e-05
2.57259562e-05	-2.19443136e-05
-4.89118102e-05	-1.30085042e-04
4.16961848e-06	-1.16153518e-04
2.30831665e-05	-6.63500978e-05
2.45484553e-05	-3.50440387e-05
-2.23050647e-05	-5.44473551e-05
-4.12167792e-05	6.65350308e-06
-1.11026748e-06	-1.03688733e-04
1.06759780e-05	-8.09625490e-05
-1.56591705e-05	-6.26156034e-05
-2.42995957e-05	-8.85640475e-06
3.34336473e-05	-1.10300811e-04
-2.02751235e-05	-9.32780604e-05
3.39463986e-05	-1.35046284e-04
5.86209135e-05	-9.54410934e-05
-1.83318480e-05	-3.82678481e-05
-2.02855917e-05	-7.97971443e-05
2.27079581e-05	-4.17564261e-05
5.40586698e-05	-1.05634535e-04
-4.10664143e-06	-1.10993584e-04
8.33783706e-05	-6.32810770e-05
2.60927391e-05	-1.02816215e-04
-1.66032914e-05	-2.36640954e-05
6.86366548e-05	-5.30117395e-05
-2.02061583e-05	-2.59506542e-05
5.48244934e-05	-1.10819688e-04
1.79534527e-05	-9.41378894e-05
1.37158568e-05	-5.47947275e-05
-2.89266936e-05	-2.16041699e-05
5.02254406e-05	-1.12561291e-04
5.09016318e-05	-2.77408690e-05
4.66685560e-05	-8.17344262e-05
2.01104594e-05	6.21874733e-06
1.48895151e-05	-2.39116162e-05
5.76356506e-05	-7.09121523e-05
4.05211977e-05	-1.12902504e-04
6.13211341e-06	-4.53701505e-05
3.93953815e-05	1.41941264e-05
8.99875522e-05	6.90920206e-06
4.90669190e-05	-1.11743084e-05
1.34922611e-05	-6.02120199e-05
8.09523845e-05	-5.96267164e-05
2.61376390e-05	-5.60219050e-05
6.76547643e-05	1.60208056e-05
6.95672643e-05	-5.37512606e-05
3.22224296e-05	-3.02829867e-05
4.35208312e-05	-1.76376507e-05
5.62494461e-05	-1.25931347e-05
7.63853459e-05	-2.67679252e-06
3.17845615e-06	-1.65366073e-05
4.10767825e-06	-9.40003229e-05
3.85578605e-05	-6.73806571e-05
7.99571062e-05	-6.96050847e-05
9.28586305e-05	-4.09985005e-05
3.64523930e-06	-4.07711786e-06
1.65344427e-05	-2.17116394e-05
3.55379452e-05	-5.50107961e-06
1.47954361e-05	-3.44134278e-05
6.28054840e-05	8.10582151e-06
2.84454763e-05	-3.07698137e-05
1.91149593e-05	-2.35751431e-05
5.85943744e-05	2.99308485e-05
5.28289165e-05	-4.59970834e-05
5.93133154e-05	-8.69918676e-06
4.62368989e-05	-2.39535220e-05
4.42501259e-05	1.45460699e-05
-2.29081070e-06	4.06313520e-05
1.50576102e-06	-6.53543466e-05
-7.14502676e-06	-3.81376303e-05
1.42878198e-05	2.04328990e-05
9.91349225e-05	-6.70701047e-06
6.23276937e-05	-1.78238588e-05
2.17966572e-05	3.13804703e-05
2.95457467e-05	4.50144362e-05
2.07134253e-05	-2.07847770e-05
4.53374159e-05	2.63694292e-05
3.36472658e-05	4.74283979e-07
2.13421627e-05	1.90968749e-05
-2.30324003e-05	3.87046493e-05
3.31033807e-05	-2.45354531e-05
3.57256977e-05	-1.53317833e-05
6.67616696e-05	-3.80214260e-06
1.61150069e-06	1.29676928e-05
-5.72007866e-06	1.54121881e-05
3.00776337e-05	-2.53306553e-05
6.14942401e-05	-1.72053478e-06
7.39908646e-05	3.93681257e-05
5.37369160e-05	-1.32183777e-06
4.99253620e-05	-1.77934089e-05
6.79510777e-08	8.60589353e-06
3.06977308e-05	4.37727795e-06
4.41571465e-05	-1.60460186e-05
1.00175075e-05	1.78317860e-05
-2.04185017e-05	1.92235966e-05
4.69485385e-05	8.64846515e-06
2.08940346e-05	1.85393619e-05
2.54358874e-05	3.00680840e-05
7.97832945e-06	1.48286563e-06
4.56172420e-05	3.86290776e-06
3.88848384e-05	2.35611114e-05
-1.91742820e-05	3.39590952e-05
-2.87068542e-05	-2.65056406e-06
2.60489323e-05	6.02037653e-06
-8.23879600e-06	-7.55883048e-06
2.41559246e-05	-3.05885624e-05
-2.14011416e-05	7.63612479e-05
6.87053544e-05	2.18285131e-05
3.85216190e-05	-5.24500228e-06
2.54795887e-05	5.14252024e-05
-2.39540896e-05	3.26102236e-05
-3.50295668e-05	5.11601611e-05
-4.92158051e-06	-1.82709664e-05
2.41406560e-05	-1.66741229e-05
2.19626781e-05	-2.75987186e-05
8.94350233e-05	-2.63932488e-05
2.18767709e-05	-2.10999387e-05
4.19483949e-05	4.01678772e-05
3.37839992e-05	3.96748219e-05
5.72572117e-06	8.89389048e-06
-4.53256189e-06	-1.07567948e-05
3.60332742e-05	3.28273818e-05
9.17737998e-06	2.58393338e-05
-2.28395293e-05	4.10710782e-05
7.54547591e-06	7.98019937e-06
-2.17332108e-05	1.57104678e-05
2.37516015e-05	3.49380425e-05
4.41074953e-05	4.71441199e-05
6.07153779e-05	1.94321365e-05
4.57744454e-06	7.23392732e-05
3.69956724e-05	4.71093699e-06
-4.36530536e-05	-6.06421418e-06
-2.33986138e-05	5.51410449e-05
6.02694563e-05	2.17138604e-05
2.05414035e-05	2.49497098e-05
3.83381921e-05	-2.42593724e-05
1.33268832e-05	3.22171618e-05
-1.63955883e-06	6.76586296e-06
1.88862541e-05	-1.65674885e-06
-1.24651160e-05	3.58388861e-05
-2.56633011e-05	-6.05691384e-05
3.52339412e-05	-2.42384322e-05
4.75476591e-05	3.07813098e-05
-1.11464933e-05	2.15026466e-05
-4.99290654e-05	2.95426762e-05
-3.06882612e-06	4.39415344e-05
-5.22997652e-05	3.31629053e-05
7.48734419e-06	-3.85578751e-05
-1.68060378e-05	-4.49770596e-06
1.87046280e-05	5.11549661e-05
2.50492340e-05	1.86002344e-05
-4.25149938e-06	-8.13913211e-05
-3.97093354e-05	5.09881465e-06
-6.47165652e-05	-9.18422666e-06
-3.30405128e-05	-1.97323625e-05
-3.24469183e-05	1.15865860e-05
-5.11768594e-05	4.50623593e-05
6.59659145e-06	-2.54657789e-06
-1.79463786e-05	-3.96771884e-06
3.12966004e-05	3.21912303e-05
-1.57996001e-05	1.56591580e-06
-8.32859314e-06	6.83878716e-06
1.78151822e-06	1.21718276e-05
1.20698205e-05	6.76355703e-05
4.59499461e-06	2.08260062e-05
1.77608290e-05	5.08557896e-05
4.49010986e-06	4.81322313e-05
4.35472102e-05	4.28761268e-05
4.11404017e-07	-9.79556353e-06
1.42709796e-05	2.27585806e-05
3.96867981e-05	4.57451970e-05
-2.76891878e-05	1.35562605e-05
-2.29421494e-05	-8.06504158e-06
-2.19778140e-05	5.67050847e-06
-2.05108227e-05	-6.55520635e-05
-4.21821460e-06	3.70087364e-05
-1.98663492e-05	6.99263410e-06
-2.63810380e-05	4.65389348e-06
1.54128320e-05	3.26729423e-05
-2.07657122e-05	7.10435415e-05
-1.44044652e-05	-1.83822885e-06
-8.85428562e-07	-3.37486053e-05
2.46309719e-05	5.04027594e-05
-4.91833180e-06	5.55995866e-05
3.74712254e-05	5.60398657e-05
-1.95927532e-05	5.13891609e-05
-9.75950570e-07	2.23207007e-05
-8.99080987e-06	2.39727215e-05
-6.15723548e-05	-2.36769120e-05
-1.54275986e-05	-1.25428805e-05
-2.70432938e-05	2.08422462e-05
8.20550049e-05	-2.94998317e-05
8.24499512e-06	7.57565940e-05
-3.67109678e-05	-3.84398902e-07
-4.47597358e-06	-1.14776703e-05
-2.76757692e-06	2.92707300e-05
-4.41487500e-05	-3.18042657e-05
-8.86142880e-06	-2.48039669e-05
3.57743957e-05	2.44012390e-05
-3.91226822e-05	1.32863624e-05
-1.87984951e-05	-1.11583095e-05
-1.11865393e-05	-1.71790616e-05
2.44035400e-05	-5.84569607e-05
1.58195635e-05	1.66550290e-05
-1.68442421e-06	2.62871527e-05
-1.84608907e-05	-1.53189758e-05
-1.22213587e-05	-3.08691669e-05
-5.79743464e-05	7.92255196e-06
-4.67646787e-05	-4.26615843e-05
5.47166565e-07	-1.14329096e-05
1.77048823e-05	-1.95365956e-05
-7.24247002e-06	2.05266169e-05
-3.05874782e-05	3.04277237e-05
-2.09611226e-05	-2.70842502e-05
-9.02810643e-06	-3.27431735e-05
-2.44411331e-05	3.20576837e-05
-2.30814567e-05	4.40503791e-05
-6.31403509e-06	-2.32660077e-05
-3.65800952e-05	-5.83838701e-05
-9.51277889e-06	3.16127043e-05
-1.89871607e-05	-1.31091911e-05
-3.37869569e-05	-2.73119531e-05
-1.24123035e-05	-1.32228761e-05
-2.67236719e-05	1.06139969e-05
-3.43417596e-05	-5.65242317e-06
-4.27355626e-05	1.19514516e-05
-2.61213045e-05	1.89527018e-05
3.58923207e-05	3.18214006e-08
-2.81886537e-06	-6.31761213e-06
-1.19851275e-05	4.84160628e-05
-9.59408317e-06	-3.31147749e-05
-1.86777870e-05	9.63460479e-07
-1.13098249e-05	-4.41180055e-06
-1.10616238e-05	3.50028567e-05
4.21106552e-06	-1.72926193e-05
9.95198752e-06	5.30414263e-06
-7.17772764e-06	5.43306942e-06
-3.05621279e-06	2.96107464e-05
-6.68456914e-06	9.82888014e-06
-3.29269278e-05	1.42463332e-05
-1.14613795e-05	-1.28104984e-05
1.00852321e-05	1.92884290e-05
1.33008161e-05	-1.90574065e-06
-3.49868560e-06	1.69639989e-05
4.41976772e-06	-1.35929440e-06
1.13794340e-05	-7.89934256e-06
1.75675996e-05	-3.28736587e-06
1.20655113e-05	2.15771142e-05
-7.65547702e-06	-1.35983028e-05
-3.06683796e-05	-7.88875695e-06
-2.93559642e-05	1.01309051e-05
-6.25529283e-05	2.90408716e-05
-2.11493425e-05	3.09293864e-05
1.06425268e-05	-4.74563058e-06
6.38196934e-06	-2.58486707e-05
-3.09814277e-05	-4.06860818e-06
-6.77750904e-07	5.42581838e-05
-5.47123182e-06	-1.68499828e-05
-1.94342956e-05	-4.11270084e-05
-1.41567944e-06	1.86347424e-05
-2.71532735e-05	4.63534598e-05
-1.67623766e-05	9.97214011e-06
-1.39358735e-05	2.16923145e-05
-7.70906263e-05	1.27671592e-06
-2.24629275e-05	-1.37385314e-05
-3.39382968e-05	1.41589171e-05
4.54267365e-06	-1.60385171e-05
-2.55068426e-06	4.03633603e-05
-2.08787205e-05	-1.38111454e-05
-6.77577600e-06	-4.38036732e-05
8.61369699e-06	1.78808659e-06
1.52036864e-05	2.33100218e-05
-6.38198526e-06	7.76564229e-06
-2.31336344e-05	-8.76906051e-06
-2.37639833e-05	1.16882456e-05
-4.13854214e-05	-1.75905770e-05
-2.34804520e-05	3.91922295e-05
-1.53383517e-05	-3.00721313e-05
-3.16270234e-05	-3.18795646e-05
2.93664089e-05	-3.67066386e-05
2.30357855e-05	2.34899726e-05
-2.87253606e-05	-3.09595089e-06
-3.27047928e-07	-2.12590276e-05
2.90971184e-05	-1.04922374e-05
-1.57645736e-05	-1.83570919e-05
3.39488797e-05	1.05773188e-05
1.92706502e-05	-6.55383265e-05
6.68874964e-06	-3.81413483e-05
-2.82143556e-05	1.28962693e-05
-5.17119997e-06	-2.65960152e-05
3.88950048e-06	-1.56697897e-05
-3.27325943e-05	-1.58647053e-05
-1.52952744e-05	-1.95618632e-05
-5.65650116e-05	8.31143916e-06
-3.84491905e-05	-4.18044256e-05
1.79420931e-05	-1.05187837e-05
-1.55137150e-05	2.53226044e-05
6.36777440e-06	-8.19637353e-06
3.76088901e-05	-3.31680931e-05
-3.11609256e-05	-1.82128970e-05
3.26251466e-05	-4.31667977e-05
-1.48829567e-05	-1.22050069e-05
-1.02878512e-05	1.98252928e-06
1.04029004e-06	-8.33513241e-06
-2.32188831e-05	-3.07584633e-05
3.52421121e-05	-2.15018372e-05
2.70218661e-05	9.26028588e-06
-1.85690737e-06	7.49205128e-06
-1.77356596e-05	-2.46078598e-05
-6.61088270e-05	7.62292439e-06
-1.73577591e-05	-1.90648552e-06
-6.35826746e-06	-4.26054066e-06
-4.64811201e-05	-6.50124130e-05
-4.40094118e-06	-3.39030375e-05
-6.42971554e-06	-3.92533075e-05
5.74672868e-06	1.47736710e-05
-1.01967016e-05	-2.09135560e-05
1.48340532e-05	3.03471484e-06
4.65289395e-06	-3.21845346e-06
-7.85664270e-07	-1.70868043e-05
-3.83860825e-05	1.42953795e-05
-2.53263061e-05	2.67001487e-05
-7.16584873e-06	-7.26195285e-05
-2.40349182e-05	2.68510157e-05
9.05285378e-06	-2.87225648e-05
-1.06612370e-05	-1.36127037e-05
8.62395609e-06	-6.35776041e-06
-2.59504195e-05	1.13671758e-05
-2.95386053e-06	-1.80498100e-05
1.73104727e-05	-1.93384913e-05
2.31157974e-05	-1.55149428e-05
-7.51566404e-07	-1.34999107e-06
-3.59840342e-05	-4.26811903e-06
-6.90197885e-06	-5.08284529e-06
-5.20204667e-05	5.13692285e-05
-7.97796292e-06	3.52936258e-05
-1.02159756e-05	4.34741833e-06
-1.29970140e-05	-5.92363085e-06
3.42478961e-06	2.40368754e-05
7.71854538e-05	-4.07991047e-06
