Dangerplot_version	1.0
Number_of_points	2048
Sampling_frequency	2.00000000e+03
Transmitter_frequency	1.27788256e+08
Phi0	-9.00000000e-02
Phi1	2.42470267e-05
PPM_reference	4.82215586e+00
Real_FID	Imag_FID	
3.81151750e-03	1.28667220e-03
5.21038193e-03	3.91703239e-03
1.93113449e-03	3.73220979e-03
5.25630254e-04	1.87814841e-03
1.17748394e-03	2.98242900e-04
2.34524091e-03	-9.22918989e-05
2.65241321e-03	2.71924247e-04
2.18008482e-03	4.59540635e-04
1.96712697e-03	1.56787355e-04
2.32922216e-03	-2.87700357e-04
3.16513167e-03	-3.67681467e-04
3.61392321e-03	6.65411644e-05
3.23264976e-03	7.50914100e-04
2.46196915e-03	1.13887538e-03
1.99051318e-03	5.93889854e-04
2.33447528e-03	-3.95078969e-04
3.35618970e-03	-6.78786018e-04
4.08576243e-03	1.94646622e-04
3.72511125e-03	1.42588781e-03
2.78285705e-03	1.84656843e-03
2.19914806e-03	1.20551663e-03
2.44269846e-03	5.75851998e-04
2.82567856e-03	6.53089141e-04
2.60090060e-03	1.18504593e-03
2.10594339e-03	1.06127304e-03
2.27813283e-03	3.68582987e-04
2.97740102e-03	1.46957551e-04
3.42450291e-03	7.83811265e-04
2.95128836e-03	1.75139646e-03
2.08538747e-03	1.95672759e-03
1.44848693e-03	1.31987408e-03
1.53127615e-03	3.96916643e-04
2.01987848e-03	-9.19539380e-05
2.51678121e-03	5.45991788e-05
2.78371619e-03	5.19718684e-04
2.87612621e-03	6.90699031e-04
2.77876155e-03	6.89386798e-04
2.91624782e-03	6.21805608e-04
3.11669218e-03	9.01961757e-04
3.16305505e-03	1.66874833e-03
2.50405911e-03	2.08200887e-03
1.68416998e-03	1.70055160e-03
1.47301855e-03	6.50550704e-04
2.19336594e-03	1.47140527e-04
3.10387718e-03	7.20668642e-04
2.99853063e-03	1.67588587e-03
2.14040885e-03	1.91141001e-03
1.49635971e-03	1.15159329e-03
1.87395327e-03	4.31073771e-04
2.75603845e-03	5.82874811e-04
3.15834768e-03	1.36835955e-03
2.60300701e-03	1.97218591e-03
1.76374777e-03	1.80739490e-03
1.43203198e-03	1.21359865e-03
1.75912259e-03	7.25055055e-04
2.31310097e-03	7.51572195e-04
2.52857665e-03	1.02802890e-03
2.37000920e-03	1.25889014e-03
2.09461316e-03	1.22475100e-03
2.17128778e-03	9.17801808e-04
2.64698314e-03	8.73046403e-04
3.03070643e-03	1.35940441e-03
2.71596177e-03	2.10989383e-03
1.74666359e-03	2.31536920e-03
1.06945389e-03	1.64328876e-03
1.32104149e-03	6.84108236e-04
2.28188885e-03	4.87135927e-04
2.77110026e-03	1.06908567e-03
2.50307820e-03	1.71007938e-03
2.00665323e-03	1.77199603e-03
1.91716349e-03	1.53779797e-03
2.08205008e-03	1.45058497e-03
1.99611834e-03	1.64244289e-03
1.52229832e-03	1.69874448e-03
1.26288261e-03	1.24374905e-03
1.56139350e-03	6.60601771e-04
2.26610317e-03	5.44229930e-04
2.83511728e-03	1.07673078e-03
2.68834154e-03	1.86886359e-03
1.92990410e-03	2.35933065e-03
1.15948834e-03	2.06849049e-03
9.43817606e-04	1.17254641e-03
1.35326548e-03	4.58514958e-04
2.12579290e-03	4.70485975e-04
2.61452654e-03	9.81029822e-04
2.57028476e-03	1.52710336e-03
2.36546621e-03	1.65468419e-03
2.37146090e-03	1.75478845e-03
2.43523344e-03	2.12242384e-03
1.97651889e-03	2.63553229e-03
1.06472219e-03	2.72218254e-03
2.70429387e-04	1.87826727e-03
4.07764426e-04	7.21532037e-04
1.38818286e-03	1.94052307e-04
2.27496563e-03	5.48126234e-04
2.55316682e-03	1.48605695e-03
2.02927273e-03	1.89952587e-03
1.51774276e-03	1.81961618e-03
1.45516777e-03	1.49005360e-03
1.66608056e-03	1.41837972e-03
1.74083898e-03	1.57683296e-03
1.51479826e-03	1.59847736e-03
1.34374679e-03	1.30465731e-03
1.63121312e-03	9.04146698e-04
2.34471704e-03	9.76090610e-04
2.75523798e-03	1.70137244e-03
2.48499284e-03	2.68664258e-03
1.45249709e-03	3.14472010e-03
4.08823020e-04	2.61206389e-03
1.24314858e-04	1.51544902e-03
7.58110720e-04	7.87433586e-04
1.57258043e-03	8.21809226e-04
1.81610032e-03	1.30318501e-03
1.72514527e-03	1.62793312e-03
1.48296834e-03	1.57885591e-03
1.55492593e-03	1.58088142e-03
1.58037536e-03	1.75541337e-03
1.29474339e-03	1.96044240e-03
8.70115706e-04	1.74402306e-03
7.43126555e-04	1.17323652e-03
1.38707354e-03	6.58794306e-04
2.22520996e-03	8.31285259e-04
2.65796483e-03	1.67088339e-03
2.24143080e-03	2.61772610e-03
1.34295505e-03	2.91702617e-03
6.08994917e-04	2.39760056e-03
6.11191033e-04	1.78020773e-03
9.98752075e-04	1.56763499e-03
1.13608118e-03	1.81499531e-03
8.91035656e-04	1.99582404e-03
5.96645637e-04	1.64016080e-03
7.37684779e-04	1.01946061e-03
1.35124568e-03	9.22226696e-04
1.76397059e-03	1.42903207e-03
1.60490407e-03	2.09034397e-03
1.01029570e-03	2.13920162e-03
6.30915572e-04	1.57313724e-03
9.41278588e-04	1.11759594e-03
1.62460248e-03	1.07775745e-03
2.02001305e-03	1.64285488e-03
1.67298038e-03	2.32557021e-03
1.00297283e-03	2.41948175e-03
6.74186391e-04	2.00966280e-03
9.49614856e-04	1.48716092e-03
1.39351294e-03	1.60102814e-03
1.43129157e-03	2.03550491e-03
9.62874037e-04	2.29001022e-03
5.00637980e-04	2.05950532e-03
5.84335183e-04	1.55714585e-03
9.16401914e-04	1.41843944e-03
1.15756062e-03	1.75419741e-03
8.59350781e-04	2.07942841e-03
4.06263222e-04	1.88590528e-03
3.84743325e-04	1.28552364e-03
9.75486706e-04	9.70038469e-04
1.54967851e-03	1.21396908e-03
1.63487787e-03	1.84719567e-03
1.18322996e-03	2.22147536e-03
8.07182922e-04	2.09343247e-03
6.65908738e-04	1.66030228e-03
1.00397540e-03	1.53941172e-03
1.20898720e-03	1.70420774e-03
1.05228683e-03	2.05617421e-03
6.82313170e-04	2.13046442e-03
4.33461857e-04	1.87632861e-03
6.75751478e-04	1.50729332e-03
1.02258264e-03	1.65788946e-03
9.01585445e-04	2.11061887e-03
2.93633377e-04	2.21985974e-03
-1.82307616e-04	1.67610287e-03
1.75029709e-04	8.35386105e-04
1.14869548e-03	5.53772319e-04
1.84928568e-03	1.31045619e-03
1.73862139e-03	2.25277175e-03
8.96235753e-04	2.70045479e-03
2.68828269e-04	2.38943822e-03
1.67023129e-04	1.84224022e-03
3.33676377e-04	1.71827967e-03
3.86624568e-04	1.64270389e-03
2.24481279e-04	1.57240417e-03
1.87582889e-04	1.11112895e-03
6.84981758e-04	8.80416133e-04
1.31242548e-03	9.70127119e-04
1.71848258e-03	1.66850362e-03
1.42806326e-03	2.57726712e-03
5.08910569e-04	2.93719582e-03
-4.29081148e-04	2.32373737e-03
-5.21427835e-04	1.29943190e-03
2.66069925e-04	7.13267596e-04
1.09305745e-03	9.68973094e-04
1.24527724e-03	1.73813710e-03
7.77378329e-04	2.17721146e-03
3.70219757e-04	1.92120275e-03
3.67077941e-04	1.57148985e-03
6.42811065e-04	1.74472469e-03
4.63553151e-04	2.10234988e-03
-1.86370031e-04	2.05307011e-03
-4.16429131e-04	1.37120171e-03
9.80934055e-05	8.34048376e-04
8.31362442e-04	8.57536099e-04
1.22186658e-03	1.39846129e-03
1.08996092e-03	1.96732767e-03
4.70624887e-04	2.28112191e-03
-6.68086504e-05	2.09072209e-03
-1.78061702e-04	1.64121122e-03
-3.80981182e-05	1.19509827e-03
3.24441527e-04	1.02454855e-03
6.31515810e-04	1.23475841e-03
6.93564944e-04	1.39226764e-03
7.55182351e-04	1.53966527e-03
8.89818126e-04	1.72184734e-03
7.90640130e-04	2.23131711e-03
2.47192365e-04	2.69128103e-03
-5.69074764e-04	2.53251358e-03
-1.02295622e-03	1.63141510e-03
-5.63417387e-04	6.98715856e-04
3.64777981e-04	5.64550981e-04
7.29959982e-04	1.20209053e-03
3.98004660e-04	1.64107594e-03
9.74493159e-05	1.45892205e-03
3.18040460e-04	1.14634377e-03
7.31899112e-04	1.25323667e-03
7.41531083e-04	1.78689556e-03
3.32104217e-04	2.11613090e-03
-1.23545469e-04	1.88253389e-03
-2.44851632e-04	1.44711253e-03
8.90382216e-05	1.14976137e-03
5.69813186e-04	1.27120817e-03
7.15192640e-04	1.80280057e-03
3.45935492e-04	2.22656713e-03
-2.87965726e-04	2.26562447e-03
-6.98999153e-04	1.68216077e-03
-4.78184171e-04	9.87456297e-04
2.78786611e-04	9.20621911e-04
6.50784292e-04	1.44530716e-03
2.28560224e-04	2.06148927e-03
-4.43627709e-04	1.81273697e-03
-5.14132727e-04	1.19184342e-03
2.35618554e-05	9.00016865e-04
4.95709188e-04	1.31225493e-03
3.22492822e-04	1.71892485e-03
-2.12865038e-04	1.70527596e-03
-2.43949224e-04	1.22510979e-03
1.04856015e-04	1.03537145e-03
5.43086382e-04	1.32253591e-03
5.01668896e-04	1.78371719e-03
9.96514354e-05	2.02133670e-03
-1.48970270e-04	1.85547862e-03
-2.91515782e-04	1.58638612e-03
-1.13549395e-04	1.37698872e-03
3.29174582e-05	1.37473596e-03
9.69401372e-05	1.57582865e-03
-1.21747100e-04	1.76180992e-03
-4.73077118e-04	1.67184905e-03
-5.77452127e-04	1.25867559e-03
-3.36740020e-04	9.36273776e-04
4.30613582e-05	1.05459720e-03
7.51227344e-06	1.25004211e-03
-2.00867929e-04	1.15751894e-03
-5.81894274e-05	8.59658350e-04
5.43486269e-04	8.50004260e-04
8.17487948e-04	1.54661993e-03
3.61964572e-04	2.34491378e-03
-4.83591139e-04	2.32565543e-03
-8.61924374e-04	1.63444411e-03
-6.18811871e-04	9.99840442e-04
-1.25436316e-04	1.03490986e-03
3.40414808e-05	1.29388389e-03
-1.96198744e-04	1.44621520e-03
-3.21236468e-04	1.32896751e-03
-2.21257142e-04	1.17102393e-03
-5.36607986e-05	1.16045703e-03
-4.73243927e-05	1.38027628e-03
-2.60366942e-04	1.54239766e-03
-5.87675313e-04	1.45883032e-03
-7.16547889e-04	9.96324001e-04
-3.31276067e-04	4.65721881e-04
4.29439213e-04	5.65508322e-04
9.34490643e-04	1.25343900e-03
6.44650077e-04	2.20540515e-03
-3.58819583e-04	2.44093640e-03
-1.11483433e-03	1.77493098e-03
-9.32846917e-04	9.25525150e-04
-2.45635922e-04	8.27217882e-04
3.27932794e-05	1.23211404e-03
-2.80310196e-04	1.48901122e-03
-6.16629492e-04	1.15607248e-03
-3.29253118e-04	6.73085044e-04
2.00286318e-04	8.34639068e-04
3.19167681e-04	1.44242356e-03
-1.95856555e-04	1.82972953e-03
-7.49698374e-04	1.63798395e-03
-9.78451921e-04	1.11862551e-03
-6.87184918e-04	5.78184612e-04
-6.03734043e-05	3.98220989e-04
4.14635229e-04	7.92145845e-04
4.76691755e-04	1.35601871e-03
4.88752994e-05	1.76622742e-03
-4.75266395e-04	1.69974670e-03
-7.20528653e-04	1.33639947e-03
-5.37531858e-04	1.14427262e-03
-4.69992781e-04	1.25700713e-03
-6.60865626e-04	1.24164310e-03
-8.27562937e-04	8.31645157e-04
-4.00480174e-04	3.73773713e-04
2.92738958e-04	5.12352213e-04
5.44847397e-04	1.31579861e-03
-9.76613155e-05	1.93038234e-03
-7.93212559e-04	1.68887828e-03
-9.94054833e-04	1.02904590e-03
-5.61639667e-04	6.25604647e-04
-1.10402776e-04	8.02216295e-04
-9.85249353e-05	1.11072906e-03
-4.17377363e-04	1.24005484e-03
-4.81726136e-04	9.97006660e-04
-2.69416370e-04	8.87314207e-04
-1.28793952e-04	1.03612314e-03
-1.96770838e-04	1.29678834e-03
-4.66529396e-04	1.43559324e-03
-8.56966944e-04	1.24197116e-03
-9.48007917e-04	8.07938282e-04
-5.51879348e-04	3.85344349e-04
4.19231073e-05	4.44159057e-04
3.00848915e-04	1.08163734e-03
-1.25128834e-04	1.68137113e-03
-8.27298558e-04	1.52559055e-03
-9.89233726e-04	8.48603901e-04
-5.54978324e-04	4.19227028e-04
-2.29071447e-05	7.26382423e-04
-1.62961689e-04	1.15013053e-03
-6.10030722e-04	1.23796938e-03
-7.65788951e-04	8.45537113e-04
-5.10307320e-04	5.59725857e-04
-1.02251419e-04	7.26788538e-04
-1.31385852e-04	1.27813721e-03
-5.74586797e-04	1.42187916e-03
-9.60763311e-04	1.17281429e-03
-8.79853964e-04	6.72809547e-04
-5.60640008e-04	4.28311323e-04
-2.54703249e-04	5.77451778e-04
-1.44530000e-04	9.74659633e-04
-4.61791933e-04	1.20609836e-03
-8.13884428e-04	1.01401843e-03
-8.42618581e-04	5.55894163e-04
-4.55860863e-04	3.36715661e-04
2.86738141e-05	6.54931122e-04
1.66855534e-06	1.13576080e-03
-4.73230146e-04	1.33375986e-03
-6.75177493e-04	9.81195713e-04
-5.44893090e-04	8.23247479e-04
-2.64771195e-04	9.77793825e-04
-4.31460590e-04	1.34177727e-03
-8.89307121e-04	1.32103846e-03
-1.14620314e-03	7.68613303e-04
-8.48061871e-04	3.35851713e-04
-2.75736675e-04	3.84170184e-04
-7.03586556e-05	7.97995832e-04
-3.56393692e-04	1.15984562e-03
-8.55689286e-04	1.11630536e-03
-1.00745808e-03	6.58998208e-04
-6.97568932e-04	2.81945278e-04
-3.11911281e-04	3.31332965e-04
-1.41455894e-04	6.15389610e-04
-2.42562281e-04	9.51921567e-04
-4.21062956e-04	9.08053597e-04
-5.09377162e-04	7.28786341e-04
-2.73320649e-04	7.10091204e-04
-1.21595367e-04	9.69145505e-04
-3.19767976e-04	1.40972342e-03
-9.23883519e-04	1.46125117e-03
-1.36015913e-03	9.24373628e-04
-1.20503874e-03	3.33269825e-04
-6.03769149e-04	1.38977557e-04
-2.77160318e-04	4.67545382e-04
-3.52805771e-04	8.42021429e-04
-6.71949761e-04	8.42990295e-04
-7.47833692e-04	6.84184954e-04
-5.64434798e-04	5.15930005e-04
-5.02375304e-04	6.95658266e-04
-6.22304447e-04	7.50973821e-04
-8.64316185e-04	5.35276253e-04
-6.04355184e-04	1.81640848e-04
-1.73215099e-04	1.43480385e-04
2.01118528e-04	5.91164455e-04
4.39214600e-05	1.28083513e-03
-5.42322814e-04	1.60694937e-03
-1.26359239e-03	1.37156097e-03
-1.48812518e-03	6.80473924e-04
-1.06227188e-03	1.09173110e-04
-4.79835377e-04	1.69825085e-04
-2.65179464e-04	4.85941127e-04
-4.18024545e-04	8.22483795e-04
-7.45366851e-04	6.99173601e-04
-7.27030390e-04	4.96139750e-04
-4.72952437e-04	4.11941612e-04
-3.51933821e-04	7.21937395e-04
-6.28025271e-04	1.02630537e-03
-1.06032332e-03	8.52820638e-04
-1.07521622e-03	3.19926505e-04
-5.84373018e-04	-6.20570972e-06
-8.41300425e-05	2.34291976e-04
4.44441757e-05	7.16539740e-04
-3.00562388e-04	1.08166004e-03
-7.42250762e-04	1.01524475e-03
-9.28689609e-04	6.54952251e-04
-7.90180580e-04	5.55734034e-04
-5.61229943e-04	5.44635812e-04
-6.34875672e-04	7.09098647e-04
-8.92639859e-04	6.54757954e-04
-8.89975869e-04	3.25244444e-04
-5.59419626e-04	2.28397417e-04
-1.88194506e-04	4.53153159e-04
-2.68618838e-04	9.03981039e-04
-7.39460927e-04	1.09627808e-03
-1.09540415e-03	7.52273947e-04
-1.10268279e-03	2.34832056e-04
-6.43989653e-04	-2.69311986e-05
-1.34350790e-04	2.45008297e-04
-1.70509273e-04	6.66763925e-04
-5.16000902e-04	8.52162018e-04
-7.39017443e-04	7.38428207e-04
-7.49302737e-04	4.92495485e-04
-4.99641232e-04	4.77202237e-04
-5.03416464e-04	6.94588758e-04
-7.07837637e-04	8.56224215e-04
-9.95069160e-04	6.83216844e-04
-9.57019918e-04	2.16456174e-04
-5.95745223e-04	5.47214077e-05
-2.19426554e-04	2.94655241e-04
-3.19038052e-04	7.14529189e-04
-6.90739078e-04	8.26488307e-04
-9.94744129e-04	4.81884868e-04
-8.44988681e-04	1.37899871e-04
-4.70302271e-04	1.42475270e-04
-2.16271190e-04	5.19266119e-04
-4.17498872e-04	8.65689071e-04
-9.07438574e-04	8.03701754e-04
-9.98161966e-04	4.43637313e-04
-7.73573294e-04	2.33256782e-04
-5.53359045e-04	3.68878944e-04
-5.25368436e-04	5.48149459e-04
-8.01372458e-04	6.17654878e-04
-1.00694562e-03	3.61633167e-04
-7.98352063e-04	3.42914573e-05
-3.94408678e-04	4.39924843e-05
-2.47187156e-04	3.79751611e-04
-3.70252179e-04	7.34135334e-04
-8.05095187e-04	7.09212793e-04
-9.96896182e-04	3.70688358e-04
-8.12027778e-04	1.72535920e-06
-3.05924041e-04	3.07825321e-05
-1.37878102e-04	4.16377006e-04
-4.28956060e-04	7.35013047e-04
-8.60602362e-04	6.71078567e-04
-8.91114702e-04	3.08921357e-04
-7.03331956e-04	1.80944189e-04
-5.48834680e-04	3.05356603e-04
-6.70482870e-04	5.28638077e-04
-9.49930167e-04	3.62741499e-04
-9.39525373e-04	-2.48229298e-05
-5.55075123e-04	-2.33661427e-04
-1.69827777e-04	-2.07901630e-05
-1.06936102e-04	4.90235863e-04
-5.13704319e-04	7.66854966e-04
-9.86448256e-04	5.71303943e-04
-1.07209501e-03	1.38423726e-04
-7.46129022e-04	-2.19395064e-04
-3.18018429e-04	-1.88195161e-04
-1.34694797e-04	2.50932353e-04
-3.33486823e-04	5.77571627e-04
-6.63106272e-04	5.11804770e-04
-7.36153335e-04	2.68354634e-04
-5.73062338e-04	2.27250857e-04
-5.12387953e-04	4.45228012e-04
-7.80713395e-04	6.69367495e-04
-1.14301872e-03	4.37051873e-04
-1.15131610e-03	-1.28419430e-04
-7.29982683e-04	-3.96307121e-04
-2.28620207e-04	-1.33312627e-04
-1.84318953e-04	2.88449402e-04
-5.30704565e-04	4.30550514e-04
-8.03004252e-04	3.33988253e-04
-7.07762782e-04	4.15965042e-05
-5.42808790e-04	1.07466822e-05
-4.08248103e-04	8.30149365e-05
-5.98462473e-04	2.59769848e-04
-6.45266380e-04	2.04969168e-04
-6.47284323e-04	5.84774461e-05
-3.85793828e-04	-2.44875555e-05
-2.30705482e-04	2.70224555e-04
-2.89363670e-04	5.53848105e-04
-7.05079641e-04	7.30218482e-04
-1.17198867e-03	5.03392192e-04
-1.28214573e-03	5.78512481e-06
-8.28315562e-04	-4.01370227e-04
-3.01631721e-04	-2.65635346e-04
-2.39737332e-04	1.37736584e-04
-5.17783279e-04	3.31223739e-04
-7.94349762e-04	1.39058568e-04
-6.14454621e-04	-1.24338927e-04
-3.65784304e-04	-3.34832803e-05
-4.01345431e-04	3.26268724e-04
-7.12053210e-04	3.36586731e-04
-8.38212611e-04	-1.03398525e-05
-6.33613614e-04	-3.69483227e-04
-1.39818105e-04	-1.79917290e-04
-4.20646102e-05	1.63733581e-04
-2.89742224e-04	5.99145424e-04
-7.69623322e-04	6.48297137e-04
-1.06111960e-03	2.62920046e-04
-9.33336560e-04	-1.09464228e-04
-6.84125698e-04	-1.94979628e-04
-3.83879902e-04	-6.98290096e-05
-4.81704395e-04	1.51965331e-04
-7.45025289e-04	2.37840664e-04
-9.19075334e-04	-1.81983723e-05
-6.62790844e-04	-3.37488018e-04
-2.89576303e-04	-2.86523922e-04
-1.56487862e-04	7.81326526e-05
-4.86063771e-04	3.60308157e-04
-8.58826563e-04	8.56312254e-05
-7.48730963e-04	-3.63972125e-04
-2.72421341e-04	-3.04352201e-04
-3.72150498e-05	8.37003972e-05
-3.74324096e-04	4.88733698e-04
-8.34125793e-04	3.21947067e-04
-8.47068208e-04	-1.95877328e-06
-6.28821261e-04	-2.04899086e-04
-3.88877233e-04	-1.10928391e-04
-4.57175047e-04	1.13624337e-04
-6.33587304e-04	2.02314041e-04
-7.63760356e-04	-3.90726491e-05
-7.53333443e-04	-1.81134950e-04
-5.34294872e-04	-2.55357329e-04
-3.43257823e-04	-1.09234912e-04
-3.29648959e-04	1.39040683e-04
-5.73557860e-04	1.96121255e-04
-8.09927878e-04	1.19157285e-05
-7.27859093e-04	-3.12598335e-04
-3.21152591e-04	-3.20264226e-04
-9.78199096e-05	2.07773846e-05
-3.83500912e-04	3.83382692e-04
-7.32901797e-04	2.30779697e-04
-8.96573183e-04	-1.25744133e-04
-5.44685696e-04	-3.92519985e-04
-2.59148685e-04	-1.54392052e-04
-3.50177375e-04	1.00986144e-04
-6.36062876e-04	1.31299123e-04
-7.30509637e-04	-8.31663856e-05
-4.26591665e-04	-3.03615205e-04
-2.59627937e-04	-5.76497332e-05
-3.65107262e-04	2.08749479e-04
-6.75001531e-04	2.27773984e-04
-8.36147810e-04	-5.27421507e-05
-7.47327344e-04	-3.94690986e-04
-5.42240334e-04	-3.68300622e-04
-2.21282753e-04	-2.32659484e-04
-2.22706803e-04	1.42602221e-04
-4.84493678e-04	3.39896098e-04
-8.02674680e-04	1.75344947e-04
-8.53292295e-04	-1.56889510e-04
-5.67588490e-04	-4.65270277e-04
-2.45614210e-04	-2.69878277e-04
-2.89626973e-04	9.42783154e-05
-6.04916713e-04	6.78369179e-05
-6.35231438e-04	-2.77415413e-04
-4.12147405e-04	-4.80890129e-04
-4.80426534e-05	-2.21509152e-04
-8.19672277e-05	2.44864292e-04
-5.72916120e-04	3.52844421e-04
-8.77815764e-04	-4.44936195e-05
-7.28277373e-04	-4.45931568e-04
-3.62922990e-04	-5.13772597e-04
-1.43903540e-04	-1.72723652e-04
-2.33515719e-04	1.63582881e-05
-4.53078479e-04	7.56727532e-05
-5.95944526e-04	3.75459640e-05
-6.26800698e-04	-9.04627959e-05
-5.29567245e-04	-1.83225129e-04
-5.00885537e-04	-1.78573362e-04
-5.65532886e-04	-1.41905941e-04
-6.81684294e-04	-1.81122945e-04
-6.63390383e-04	-4.28810657e-04
-3.85509949e-04	-5.60248387e-04
-1.63111108e-05	-3.38828831e-04
-1.42349290e-05	3.15783873e-05
-3.57714249e-04	2.12081897e-04
-7.79432128e-04	-2.00633258e-06
-6.25980785e-04	-3.70287104e-04
-2.91583681e-04	-4.83434589e-04
-1.54392910e-04	-1.60974043e-04
-2.68024305e-04	1.07753061e-04
-5.54985774e-04	4.88816331e-05
-4.29661712e-04	-2.22240662e-04
-3.28086317e-04	-2.11168648e-04
-3.10839736e-04	-1.50199876e-05
-4.90848557e-04	1.81420124e-04
-8.05904274e-04	8.50829565e-06
-7.81678536e-04	-2.36130974e-04
-5.41561516e-04	-4.34662739e-04
-3.82454571e-04	-5.13427600e-04
-1.93308049e-04	-2.71612458e-04
-2.61193898e-04	-5.18649249e-05
-4.11249348e-04	-3.22603119e-05
-5.61894150e-04	-2.58373620e-04
-4.02509002e-04	-4.09197848e-04
-1.44035759e-04	-3.48661997e-04
-8.51459263e-05	-1.80626776e-05
-3.80991551e-04	9.94462389e-05
-5.78105624e-04	-4.28401181e-05
-4.94708656e-04	-3.96853749e-04
-1.51461834e-04	-4.47984639e-04
7.45261350e-05	-5.78360596e-05
-2.07072910e-04	3.41951032e-04
-7.68683094e-04	2.92156648e-04
-9.50494432e-04	-2.23234601e-04
-6.16462203e-04	-6.14641700e-04
-2.51553865e-04	-5.53938618e-04
-7.45519865e-05	-1.98254565e-04
-2.38763838e-04	-3.82275102e-05
-5.43175847e-04	-1.23306861e-04
-5.01696370e-04	-3.11036507e-04
-3.62467195e-04	-4.51741886e-04
-1.86813617e-04	-4.06002102e-04
-1.35422088e-04	-1.49401327e-04
-1.92971682e-04	-2.89369600e-05
-3.92482383e-04	-4.63392498e-05
-4.05956467e-04	-2.22142771e-04
-2.47265474e-04	-2.64993694e-04
-1.62643468e-04	-1.01648315e-04
-3.09772528e-04	1.15577903e-04
-6.14309043e-04	6.90562865e-06
-6.56973221e-04	-3.17169790e-04
-3.93178430e-04	-4.95968969e-04
-1.38048752e-04	-2.87400617e-04
-1.92823616e-04	-5.41789632e-07
-5.41383924e-04	2.37909262e-06
-6.16484962e-04	-2.50833458e-04
-4.31662076e-04	-5.55617327e-04
-2.02190218e-04	-4.75032895e-04
-9.54118877e-05	-1.39128795e-04
-2.30462290e-04	4.06508116e-06
-4.27295949e-04	-1.85438272e-04
-3.79968900e-04	-3.24061111e-04
-1.36537958e-04	-3.67439294e-04
-2.81453085e-05	-1.82379314e-04
-1.94958819e-04	9.42475890e-05
-4.15910414e-04	1.99953021e-04
-6.73677656e-04	-4.42556739e-05
-6.15237863e-04	-4.25765844e-04
-2.79848813e-04	-5.24903589e-04
8.31657144e-06	-3.53056181e-04
-6.17111655e-05	-8.52771554e-05
-3.86052881e-04	5.40020992e-05
-5.15059102e-04	-1.89875354e-04
-3.58080084e-04	-3.84584389e-04
-1.22306999e-04	-3.73147544e-04
-4.90541643e-05	-8.81296655e-05
-2.64682953e-04	4.09583554e-05
-4.76029440e-04	-1.60007286e-04
-4.22965502e-04	-4.72822663e-04
-9.20051389e-05	-4.94349166e-04
6.74686526e-05	-1.40419623e-04
-8.62969828e-05	1.70918909e-04
-3.65096377e-04	1.01817488e-04
-5.31417900e-04	-1.39146563e-04
-4.20229742e-04	-4.04540391e-04
-1.81417592e-04	-4.24093887e-04
-7.68988684e-05	-2.94192083e-04
-5.03568845e-05	-1.35099079e-04
-2.64902133e-04	-1.49084328e-04
-2.56240659e-04	-2.61775393e-04
-1.74562141e-04	-3.20240797e-04
-8.84405381e-06	-1.54306588e-04
-9.16732824e-05	1.09598086e-05
-3.87640699e-04	4.65543017e-05
-5.24366158e-04	-2.84456764e-04
-3.26840964e-04	-5.10848127e-04
-4.73118052e-06	-4.95004584e-04
1.47206913e-04	-1.90682491e-04
-1.82153290e-05	9.52476112e-05
-3.60108068e-04	7.24057827e-05
-4.30365006e-04	-2.16988061e-04
-2.77942425e-04	-3.52811097e-04
-1.26992774e-04	-2.57735548e-04
-6.37571211e-05	-1.80801100e-04
-2.46421027e-04	-8.85291956e-05
-3.65606305e-04	-2.79044383e-04
-2.19902300e-04	-4.41366807e-04
4.20979486e-05	-4.00705641e-04
9.77155141e-05	-1.69163541e-04
-3.14204808e-05	3.66679124e-05
-3.28873313e-04	-1.55342514e-05
-4.24263446e-04	-2.29734200e-04
-2.50856741e-04	-4.46804945e-04
-1.00332682e-05	-3.93423048e-04
5.94335252e-05	-1.29114807e-04
-1.27358217e-04	3.09654606e-05
-3.69716843e-04	-4.63069664e-05
-3.33184347e-04	-2.49522040e-04
-1.33220950e-04	-3.52711009e-04
-3.44424989e-05	-2.72160105e-04
-1.10575318e-04	-9.79098695e-05
-3.36997415e-04	-1.03765145e-04
-4.06157051e-04	-3.27616843e-04
-1.78322851e-04	-5.42951282e-04
7.83416763e-05	-4.31787164e-04
8.37922416e-05	-1.77488691e-04
-9.85746301e-05	2.14183165e-05
-3.19403625e-04	-1.03391612e-04
-3.11875134e-04	-3.32662108e-04
-1.89229992e-04	-3.94800270e-04
-2.93249377e-05	-2.50789162e-04
2.46018808e-05	-4.14243113e-05
-1.90172606e-04	9.13356689e-06
-3.71567818e-04	-1.36450515e-04
-2.97916209e-04	-3.23182845e-04
-3.51587260e-05	-3.22061853e-04
-6.09245835e-05	-1.15457733e-04
-2.02118885e-04	8.19757224e-06
-3.77978344e-04	-1.17573582e-04
-3.38865182e-04	-3.54131829e-04
-1.64088357e-04	-5.24775707e-04
7.21086762e-05	-3.67057568e-04
8.01887290e-05	-1.00218545e-04
-8.48088166e-05	-7.34692367e-06
-2.94945203e-04	-1.62393961e-04
-2.29455240e-04	-4.06708132e-04
-1.66120426e-05	-4.42281831e-04
1.26692714e-04	-2.67525174e-04
1.20698074e-04	3.24124412e-05
-1.24883562e-04	4.93513144e-05
-2.69326003e-04	-7.72185376e-05
-1.89535262e-04	-2.50928279e-04
-9.93488266e-06	-2.35188592e-04
4.99893722e-05	-5.85520575e-05
-1.84070072e-04	-1.14095492e-05
-3.80733865e-04	-2.17240231e-04
-2.85761256e-04	-4.53998888e-04
-8.73251065e-06	-4.82863921e-04
2.42894283e-04	-2.36068125e-04
5.38925342e-05	-2.78337156e-05
-2.55623396e-04	-1.02733262e-04
-2.53960112e-04	-3.09144001e-04
-1.17087417e-04	-5.02055162e-04
9.31826435e-05	-3.63887288e-04
2.20403439e-04	-1.59791802e-04
3.68876899e-05	-2.03066284e-05
-1.26415282e-04	-3.18015373e-05
-2.28585210e-04	-3.04834452e-04
-6.44585380e-05	-3.43227788e-04
7.71833147e-05	-2.24520278e-04
8.28677221e-05	-2.45599767e-06
-1.57605478e-04	1.10642563e-04
-3.39415274e-04	-1.47846935e-04
-2.92879995e-04	-4.63397126e-04
1.26692867e-05	-5.56717743e-04
2.22792907e-04	-3.03497596e-04
9.88210450e-05	-2.14763040e-05
-2.08148849e-04	-7.21176093e-06
-2.80000531e-04	-2.73808633e-04
-9.10715607e-05	-4.58909170e-04
1.37291019e-04	-3.23779270e-04
8.90714582e-05	-1.96230467e-04
-4.48621831e-05	-1.68841099e-04
-1.12905429e-04	-2.90828757e-04
4.43369354e-05	-3.67885135e-04
1.10502042e-04	-2.63186841e-04
1.58418989e-04	-1.09821267e-04
-7.18017691e-05	2.25606909e-05
-2.70671473e-04	-1.14732429e-04
-2.84253154e-04	-2.70745571e-04
-1.25953477e-04	-4.98877780e-04
2.49326640e-05	-3.73022485e-04
1.12677772e-04	-2.56992964e-04
-3.06821767e-06	-1.27095482e-04
-1.37099647e-04	-7.87070530e-05
-1.56254682e-04	-3.52929375e-04
7.97450775e-05	-4.12821915e-04
1.88084057e-04	-2.58914049e-04
1.14465591e-04	-4.36897062e-05
-1.14403592e-04	-5.91900280e-05
-1.82827382e-04	-3.32173164e-04
-8.74769466e-06	-4.98416019e-04
2.27552737e-04	-2.74892343e-04
2.83331145e-04	5.37536180e-05
-7.86644960e-05	1.23726582e-04
-2.61887442e-04	-6.71483067e-05
-1.89053011e-04	-3.25772824e-04
-6.00932435e-06	-4.20042605e-04
1.40918943e-04	-2.85275863e-04
1.36916351e-04	-1.47929226e-04
-7.38429208e-07	-1.01751597e-04
-7.32323533e-05	-1.42884994e-04
6.05414280e-05	-3.04304907e-04
9.45219508e-05	-2.86555936e-04
2.25120573e-04	-1.54091598e-04
1.04486258e-04	-3.17673475e-05
-6.57172786e-05	-4.66652782e-05
-1.97421730e-04	-2.20285525e-04
-6.34067874e-06	-3.83248931e-04
2.55376159e-04	-2.83881323e-04
2.07865043e-04	-4.19283060e-05
-7.70706320e-05	3.71125789e-05
-2.03639574e-04	-1.05683081e-04
-1.44043006e-04	-3.40504688e-04
9.15020064e-05	-3.59540805e-04
2.12475032e-04	-1.72051528e-04
4.47201746e-05	-8.40231514e-05
-1.31709123e-04	-1.28001004e-04
-7.01137251e-05	-3.14543635e-04
1.37687268e-04	-3.39067279e-04
2.55139457e-04	-1.72657834e-04
1.88338483e-04	-7.97700632e-05
-5.93167897e-07	3.30784787e-05
-7.84634394e-05	-1.36167102e-04
3.44659020e-06	-2.33892511e-04
5.33942475e-05	-2.90963799e-04
1.85658311e-04	-2.14188418e-04
1.26990344e-04	-1.00376019e-05
-3.06540023e-05	8.01641872e-05
-2.37809727e-04	-1.51319822e-04
-1.03440936e-04	-3.32712429e-04
6.46077533e-05	-3.77750519e-04
2.09364836e-04	-1.46232458e-04
3.67016510e-05	4.92589716e-05
-2.00069742e-04	-1.32081550e-04
-5.61857560e-05	-3.66482534e-04
1.81335388e-04	-3.50477640e-04
3.15633253e-04	-1.32649628e-04
1.05583014e-04	7.86531309e-05
-9.14625416e-05	-3.50030787e-05
-1.22630110e-04	-2.74294813e-04
6.08593291e-05	-3.69194546e-04
2.08103869e-04	-2.92668643e-04
2.15183507e-04	-8.03870207e-05
7.40636533e-05	5.58878419e-05
-7.70980987e-05	1.87493351e-05
-9.97459865e-05	-1.81225987e-04
-6.95389317e-05	-3.06742731e-04
1.06172542e-04	-2.31493934e-04
1.70879386e-04	-1.07495682e-04
-5.24678762e-06	5.72094950e-06
-1.11117028e-04	-1.42031509e-04
-6.19781349e-05	-3.42337415e-04
1.49887288e-04	-4.00393823e-04
2.54840561e-04	-1.64701283e-04
1.66340644e-04	5.17446897e-05
-1.25950755e-04	4.29627507e-05
-1.99707152e-04	-2.49254459e-04
-2.02679730e-05	-3.95876530e-04
2.91291100e-04	-2.71359662e-04
2.60962115e-04	-1.85837453e-05
9.07655412e-05	9.71558766e-05
-1.65339836e-04	-1.13670922e-05
-1.03058206e-04	-1.56681330e-04
3.78805089e-05	-1.92661551e-04
5.74351870e-05	-1.21198362e-04
2.16848530e-05	-8.41183137e-05
-7.53622298e-05	-1.48498380e-04
-5.88926850e-05	-2.50009442e-04
3.81665486e-05	-2.32667851e-04
1.45432015e-04	-2.52750120e-04
1.22018188e-04	-2.02232244e-04
1.12434202e-04	-8.04511728e-05
-5.91648422e-05	-1.18684206e-04
-4.99652015e-05	-2.51358142e-04
4.98492882e-05	-3.00300948e-04
2.81784829e-04	-2.23803188e-04
2.40380585e-04	4.42101409e-05
-1.17112686e-05	9.84279759e-05
-1.83606491e-04	-1.52011693e-04
5.07533332e-05	-2.91089062e-04
1.69521867e-04	-2.40029825e-04
1.78516289e-04	-9.22664185e-06
-3.17318627e-05	6.38545462e-05
-2.03440999e-04	-1.31541892e-04
-1.31216686e-04	-3.87246109e-04
6.57075580e-05	-4.12897847e-04
2.27718469e-04	-2.72346573e-04
2.30128993e-04	-9.44934436e-05
6.62180901e-05	-7.50740292e-05
2.37025033e-05	-1.58521230e-04
-1.27300891e-05	-2.01871648e-04
1.42697027e-04	-2.65462499e-04
1.95872082e-04	-1.58051713e-04
1.73016917e-04	-1.13296672e-04
1.98580856e-05	-5.08903395e-05
-4.29082975e-05	-1.33312264e-04
4.21030272e-05	-1.75483510e-04
1.56080219e-04	-1.43067839e-04
2.15528344e-04	-1.86362231e-05
1.59999604e-06	6.98546064e-05
-2.18990070e-04	-9.48437664e-05
-1.36641538e-04	-3.43551801e-04
1.41900382e-04	-3.38287879e-04
3.09218914e-04	-1.62262790e-04
1.52227163e-04	3.80639976e-05
-5.30657599e-06	-1.33933299e-05
-1.44569698e-04	-2.08984580e-04
5.54992766e-05	-3.72794981e-04
2.02908937e-04	-2.55144842e-04
1.75093650e-04	-7.73261490e-05
1.07740248e-04	-4.61854215e-05
2.13792046e-05	-6.35726246e-05
2.74265039e-05	-1.74720786e-04
3.67597713e-05	-2.02852374e-04
1.53635890e-04	-1.45371596e-04
1.20563709e-04	-9.88900501e-06
1.04087136e-04	-2.07787507e-05
-8.92840690e-05	-9.05887719e-05
-3.36185549e-05	-2.27425640e-04
9.32575276e-05	-2.43132716e-04
2.25589029e-04	-9.86128362e-05
6.74333933e-05	2.96274175e-06
-6.57811397e-05	-1.10173960e-05
-7.04733102e-05	-2.07906691e-04
8.57064952e-05	-2.97487743e-04
2.56281230e-04	-1.20705881e-04
2.17603127e-04	4.28626699e-05
-4.69073093e-05	6.68284192e-05
-1.05193983e-04	-1.23510443e-04
1.80874576e-05	-2.81909539e-04
2.46859912e-04	-2.13444029e-04
2.16550819e-04	1.30158078e-05
3.86745414e-05	3.61482271e-05
-5.87693321e-05	-8.33109152e-06
-4.69303632e-05	-2.41223242e-04
5.49491378e-05	-2.25023221e-04
2.13562700e-04	-2.22297167e-04
1.41861427e-04	-8.06819025e-06
9.30828828e-05	5.75538324e-05
1.27019493e-05	-3.58636789e-05
-9.49329842e-05	-1.41451004e-04
4.68588987e-05	-2.00577386e-04
1.87846512e-04	-9.56312506e-05
1.27069419e-04	3.88188419e-05
-4.19650023e-05	5.29667814e-05
-1.04783496e-04	-1.42637786e-04
5.84026639e-05	-2.29355923e-04
2.33683895e-04	-1.64796977e-04
1.98571302e-04	7.34992427e-05
5.73969155e-05	1.60766125e-04
-1.47341227e-04	2.30618134e-05
-1.29018299e-04	-1.39883457e-04
1.21677178e-04	-2.35651605e-04
1.81422438e-04	-1.14197261e-04
9.91651395e-05	-1.61348580e-05
5.93486620e-05	-1.60465133e-05
1.39599888e-05	-1.06133906e-04
5.55789848e-05	-1.64992700e-04
1.52336914e-04	-8.67292620e-05
1.91832165e-04	-4.71916428e-05
2.59522203e-05	-5.40332530e-06
-2.91287797e-05	-2.47354747e-05
-9.73265924e-05	-1.75034482e-04
4.92873332e-05	-1.47330691e-04
2.22002578e-04	-1.34769871e-04
2.10486847e-04	2.75771563e-05
3.16413025e-05	9.33478004e-05
-1.17665433e-04	-3.24970279e-05
-8.54215177e-05	-1.42342338e-04
8.59615102e-05	-1.87905171e-04
1.35530543e-04	-1.23244259e-04
6.29533461e-05	2.69074299e-05
-5.59645741e-07	-5.11476283e-05
-1.67077505e-05	-2.07395147e-04
1.09549808e-04	-2.39027780e-04
2.39959321e-04	-7.08796870e-05
1.85675817e-04	4.38304305e-05
-2.98615141e-05	6.06468020e-05
-5.63776266e-05	-4.89059239e-05
2.75622133e-05	-2.04019554e-04
1.84409480e-04	-2.10442071e-04
2.65386014e-04	-8.27076656e-05
1.34640504e-04	7.50544423e-05
-3.35816803e-05	9.23781918e-05
-6.58384961e-05	-1.26035975e-05
-1.38195464e-05	-1.74579560e-04
1.50515698e-04	-1.48745428e-04
2.09716149e-04	-6.23677624e-05
5.32438571e-05	-2.16849767e-05
-6.18227059e-05	-8.68625066e-05
1.79933086e-05	-1.82667747e-04
8.72471865e-05	-2.51366931e-04
2.29108002e-04	-1.43982426e-04
1.75194378e-04	-1.03757302e-05
4.04776583e-05	-3.37155107e-05
4.33348760e-06	-7.67145684e-05
9.93042995e-05	-1.80724324e-04
1.82828560e-04	-1.64823257e-04
1.62564917e-04	-3.18540624e-05
6.53583702e-05	2.03261552e-05
-8.96378879e-06	-8.73913632e-06
-1.45580452e-06	-1.03454047e-04
7.98514229e-05	-1.28381798e-04
1.26967716e-04	-3.11609037e-05
3.91662907e-05	3.31957108e-06
-7.17247458e-05	2.58200885e-06
-1.00167235e-04	-1.83123819e-04
1.52841621e-05	-2.19085923e-04
1.51267915e-04	-1.55142974e-04
2.21453200e-04	8.90653155e-07
1.52533234e-04	8.04584051e-05
-6.32007286e-05	4.68876606e-05
-7.67698293e-05	-1.21963953e-04
6.43390231e-05	-1.78077389e-04
1.95582295e-04	-1.55790432e-04
1.62237877e-04	-7.81261770e-06
9.83142163e-05	7.22050463e-05
-1.57630893e-05	4.80695417e-05
-3.07805894e-05	-4.63913530e-05
7.16429131e-05	-6.00616295e-05
9.17839570e-05	-8.51416189e-07
9.51026595e-05	2.20461789e-05
6.19253115e-07	4.05554783e-05
-3.71457172e-05	-3.79908597e-05
3.58575999e-05	-1.68682265e-04
1.17399941e-04	-1.67023987e-04
1.78626578e-04	8.10272613e-05
4.68491526e-05	7.13540721e-05
-7.54241701e-05	1.87007790e-05
-2.89156505e-05	-1.44178324e-04
1.05428036e-04	-2.10162718e-04
2.24330724e-04	-5.90339769e-05
1.85084238e-04	1.97639056e-05
3.42485873e-05	5.70985212e-05
-7.33179058e-06	-2.00853483e-05
7.16231079e-05	-5.19512832e-05
1.20345758e-04	-6.77737917e-05
1.45812315e-04	4.36199516e-05
5.00593451e-05	9.87891399e-05
-5.03456977e-05	-6.88386426e-05
-1.61912567e-07	-1.65635662e-04
1.03706741e-04	-1.61191085e-04
1.86613412e-04	-6.22486778e-06
1.21593272e-04	1.29442167e-04
-8.26439646e-07	8.19509223e-05
-9.52421033e-05	-3.53377945e-05
-1.30066783e-05	-1.38979929e-04
1.37406518e-04	-1.41413024e-04
1.77049995e-04	2.48806082e-05
5.75612066e-05	6.64512481e-05
-4.67708269e-05	8.86825292e-05
-5.72430945e-05	-7.30921020e-05
9.45636202e-05	-1.32442918e-04
2.29979516e-04	-2.15485579e-05
1.13368958e-04	1.25668346e-04
4.30459386e-06	1.66488288e-04
-3.16310361e-05	1.22301699e-05
-2.23220413e-05	-1.41189827e-04
7.52714986e-05	-1.65244986e-04
1.48859603e-04	-8.33592348e-05
1.00787875e-04	1.17176551e-05
-8.72057717e-06	3.81166356e-05
-3.31028677e-05	2.80951772e-05
6.36000368e-06	-6.80135417e-05
7.09646993e-05	-5.33280872e-05
1.27036663e-04	-2.55623854e-05
2.32553266e-05	7.70861297e-05
-4.72327747e-06	3.70243833e-05
2.15778218e-05	-3.13227974e-05
1.13031056e-04	-1.19063930e-04
2.02281473e-04	-3.39629842e-05
8.06629105e-05	1.01528276e-04
-8.35933679e-06	8.53662350e-05
-9.85905790e-05	-4.17798183e-05
8.95977064e-06	-2.03973512e-04
1.97225541e-04	-1.19087352e-04
1.85672397e-04	1.99839087e-06
2.56005260e-05	1.14614697e-04
-5.56847590e-05	6.64260369e-07
2.91975703e-05	-5.02479816e-05
8.12623402e-05	-9.98369796e-05
1.75655136e-04	-1.56457500e-05
7.48941311e-05	5.30692632e-05
-3.65826090e-05	1.00303099e-04
1.42125828e-05	9.75082366e-06
-1.15657695e-05	-4.81991883e-05
1.24601225e-04	-8.86661437e-05
1.37585070e-04	3.92359470e-06
8.72517121e-05	8.45703398e-05
-7.68597092e-05	9.10968665e-05
-8.42228765e-05	-2.06060795e-05
8.30898134e-05	-1.59842413e-04
1.70758402e-04	-1.16396113e-04
1.53132933e-04	1.37870902e-05
4.44363395e-05	1.39074240e-04
-4.54157125e-05	-3.21704574e-05
7.06257197e-05	-1.72887376e-04
1.37651572e-04	-1.06304913e-04
1.33981695e-04	6.77708013e-05
6.03179069e-05	1.18681855e-04
-4.79376376e-06	2.06658970e-05
1.32915739e-06	-5.65632727e-05
8.50731376e-05	-6.70617519e-05
1.83049764e-04	-8.18428271e-06
1.27282474e-04	6.01123320e-05
6.53816551e-06	1.05270912e-04
-9.18928890e-06	5.98699080e-05
-1.14689145e-04	-4.01659890e-05
9.01262611e-05	-8.36205727e-05
9.10142044e-05	-8.79209911e-05
1.14847127e-04	2.54481188e-06
8.92237294e-05	8.32995647e-05
-3.20620093e-05	-2.82104629e-05
1.17892478e-06	-1.15097813e-04
1.67743303e-04	-8.83048488e-05
2.40476322e-04	3.92972925e-06
1.00284684e-04	8.20992864e-05
-2.20203692e-05	1.38116684e-05
-4.61887685e-05	-6.44555621e-05
1.26352636e-04	-1.40651813e-04
1.96316629e-04	5.86394453e-05
1.56872920e-04	1.37337789e-04
4.41862576e-05	1.21099947e-04
-2.05053366e-05	5.68569303e-05
1.38389551e-05	-6.33155432e-05
1.03442209e-04	3.10824180e-05
6.73541217e-05	7.35969661e-05
-7.86841429e-06	1.15202311e-04
-3.51797098e-05	3.04413970e-06
3.04184396e-05	-2.40665559e-05
8.77682760e-05	-4.95977256e-05
1.34319562e-04	-3.68428882e-05
1.37585899e-04	2.66754414e-05
7.52205524e-05	1.26207655e-04
-5.26856529e-05	6.36331315e-05
-5.66102390e-05	-8.09595658e-05
8.21685317e-05	-1.22512924e-04
2.31817627e-04	1.87478654e-05
1.91143656e-04	1.12799404e-04
3.49247675e-05	1.25753839e-04
-2.47752032e-05	3.14096578e-05
6.89626686e-05	-5.87754730e-05
1.66686208e-04	-1.40068569e-05
8.83783650e-05	1.09270455e-04
-7.59375689e-06	9.77067175e-05
-4.52780660e-05	-1.55281741e-05
6.39981445e-05	-7.86481833e-05
1.51032174e-04	-3.69225745e-05
1.50090593e-04	6.62335606e-06
6.15123136e-05	8.66909904e-05
7.10233735e-06	9.51120019e-05
-1.07041969e-05	-1.35408463e-05
5.63048416e-05	-5.67532406e-05
1.32399335e-04	-2.19237463e-05
1.20246848e-04	1.05418058e-05
5.90310810e-05	1.41619501e-04
4.00956087e-05	1.14641953e-04
-1.34391390e-04	1.56043752e-05
-3.13326527e-05	-4.56249836e-05
1.74457819e-04	-4.15576178e-05
1.15369461e-04	1.02401100e-04
-1.20516506e-06	1.39142852e-04
-1.30867949e-04	4.10367829e-05
1.83274642e-05	-9.96332747e-05
1.31869427e-04	-6.40993021e-05
2.14571075e-04	1.05794476e-04
3.65244996e-05	1.13464681e-04
-3.60061604e-05	5.96793834e-05
-7.56471172e-06	-3.18902894e-05
4.58690847e-05	-3.93508890e-05
1.27734733e-04	2.39846722e-05
8.00733178e-05	8.09803751e-05
7.44382305e-07	7.54779394e-05
7.52426422e-06	2.21429527e-05
5.24595780e-05	-3.02847047e-06
5.90206218e-05	-4.50180305e-05
8.40760840e-05	5.24469433e-05
2.48604647e-05	4.83435579e-05
-5.20016738e-06	4.27240338e-05
-4.99492380e-05	-1.13067126e-05
3.37037886e-06	-1.18212200e-04
1.71562235e-04	-8.90644151e-05
1.68244602e-04	9.15049386e-05
4.51405540e-05	1.67121660e-04
-8.98169019e-05	8.55416729e-05
-1.13574963e-04	-7.41403637e-05
2.95669197e-05	-7.15842252e-05
1.65051737e-04	6.52151939e-05
1.72766813e-05	9.58302771e-05
-4.41310003e-05	4.14397873e-05
-2.38836092e-05	1.75351997e-05
3.24132416e-05	-7.99628906e-05
6.20533974e-05	-1.51103568e-05
3.69428926e-05	4.13266498e-05
-8.73052159e-07	5.11687904e-05
-4.59906696e-05	3.53261530e-05
-9.18868864e-06	-3.25607016e-06
3.97949734e-05	-9.01429812e-05
8.74857724e-05	-3.80458223e-05
1.24125130e-04	4.17268348e-05
5.01759896e-05	9.93376088e-05
-4.23842284e-05	5.63951180e-05
-4.92074068e-05	-1.77651254e-05
1.04989987e-04	-4.21891600e-05
1.13925591e-04	5.29554291e-06
8.80000334e-06	1.05850762e-04
-6.44675310e-05	5.62802488e-05
-1.11675872e-05	-1.84205783e-05
2.22519157e-05	-5.32556587e-05
1.00839512e-04	3.91345275e-05
6.42390805e-05	1.23726277e-04
-1.62723973e-05	9.71242189e-05
-7.28785453e-05	-1.56411515e-05
5.01144541e-06	-9.96708986e-05
2.18714322e-05	-6.96678253e-05
8.60543587e-05	-1.20147570e-05
5.13233499e-05	8.24982126e-05
4.14255337e-05	5.90364689e-05
-3.38140262e-06	4.66631172e-06
6.41644656e-05	-4.17534102e-05
5.85785965e-05	-1.25221613e-05
1.41378638e-04	7.95405504e-05
3.21553343e-05	1.13620779e-04
-5.06269789e-05	9.86008090e-05
-3.76820353e-05	-2.65978815e-05
9.87033927e-05	-5.16937653e-05
1.52836292e-04	2.56225721e-05
6.91722526e-05	1.40254531e-04
-8.21854483e-05	1.71185180e-04
-6.17702535e-05	3.99223936e-05
-9.02439206e-06	-2.96651287e-05
1.39365715e-04	-2.09008485e-05
9.80014011e-05	6.04811721e-05
1.38964660e-05	6.46545086e-05
-2.32432303e-05	3.62451501e-05
3.29342947e-05	-2.75390012e-05
1.32342087e-04	-4.44417601e-05
1.00355464e-04	3.53041432e-05
9.49161404e-05	1.08634886e-04
-1.67940761e-05	7.52626074e-05
-2.71823446e-05	-3.54511030e-06
1.54181762e-05	-1.78311948e-05
1.48814142e-04	-1.44809292e-05
1.21099889e-04	7.44366625e-05
9.90190165e-05	1.03043538e-04
2.22580820e-06	1.65187419e-04
-4.87217658e-05	5.98587976e-05
-1.42075342e-05	1.89834136e-05
6.14412493e-05	1.63879340e-05
6.07301045e-05	2.07165158e-05
2.70108067e-05	7.88336765e-05
-1.97291502e-05	3.89055531e-05
3.69705376e-05	-2.29228135e-05
1.14321316e-04	-5.93770237e-05
7.42469929e-05	3.41018858e-05
4.45597834e-05	1.08574452e-04
-8.91489617e-05	8.78298233e-05
1.86515026e-05	-2.76114970e-05
4.76290224e-05	-3.03311917e-05
1.15830262e-04	2.13761396e-05
2.03763502e-05	1.22505080e-04
-3.60266131e-06	1.34044734e-04
-1.75815821e-05	1.16466566e-04
-3.11073127e-05	2.74639333e-05
2.91079468e-05	-3.59270962e-05
1.02302613e-04	4.40951180e-06
6.38643178e-05	4.36525661e-05
-6.45161708e-05	8.65515758e-05
-2.39227156e-05	-8.32404203e-06
1.60305044e-05	-4.56489979e-05
1.45351223e-04	-7.04618942e-05
1.04766252e-04	1.99334318e-05
1.06029911e-04	1.27113803e-04
-7.68473474e-05	6.91711321e-05
-8.62505622e-05	-4.09624554e-05
4.01462275e-05	-8.53021338e-05
1.21680438e-04	-7.05901584e-07
7.04032718e-05	9.98503674e-05
-5.09231313e-07	1.02172700e-04
-2.21883092e-05	1.11251911e-05
2.28108092e-05	-3.91808753e-05
2.87670173e-05	-2.35165498e-06
4.38328316e-05	3.88991939e-05
3.97082149e-05	4.99243361e-05
-1.45178583e-05	-1.70844341e-05
-3.63541731e-05	-7.24083366e-05
-1.07434116e-05	-4.00048884e-05
1.14101051e-04	-9.94780385e-06
9.34706113e-05	9.19488448e-05
5.25402793e-05	7.00675737e-05
-5.11186045e-05	1.99571768e-05
-9.99376243e-06	-4.92924737e-05
4.08166525e-05	-7.15579445e-05
1.02957143e-04	2.28236058e-05
4.12845693e-05	6.59371435e-05
-5.61870838e-05	3.12884113e-05
-3.89329289e-05	2.06925215e-05
1.74446031e-05	-4.32852139e-05
3.49700058e-05	-1.88056529e-05
2.13426138e-05	4.89752892e-05
-5.68149335e-05	3.69533736e-05
-8.80970911e-05	-6.85881969e-06
1.77620441e-05	-2.04881726e-05
5.11887774e-05	-5.95496349e-05
1.38256757e-04	9.14487828e-06
1.21426747e-04	7.71171035e-05
-2.25122858e-05	1.24692247e-04
-1.50617552e-05	1.99301348e-06
-7.57932139e-06	-4.99960915e-05
-2.34188301e-05	-5.37844098e-05
7.03690239e-05	7.19552045e-05
3.04910645e-05	7.32537301e-05
-6.68245630e-05	1.04672989e-04
1.66695972e-05	-3.66059903e-05
8.37451080e-05	-2.22820672e-05
5.53791506e-05	1.76665053e-05
6.89086010e-05	6.92929025e-05
-1.98410416e-05	7.11416069e-05
-7.50148902e-05	5.26632539e-06
3.29732720e-05	-6.66325068e-05
8.99834777e-05	-5.21805923e-05
9.41271355e-05	8.20513742e-06
6.04004854e-05	9.66327425e-05
-5.33745788e-06	4.11207111e-05
1.13869464e-05	2.74363629e-05
1.20409950e-05	-2.49687073e-05
3.59181176e-05	9.30884744e-06
7.51536354e-05	3.83944716e-05
3.41646955e-05	4.82310570e-05
-2.85726092e-05	2.43380873e-05
-3.48110079e-05	-4.31801673e-05
8.41299698e-05	1.58836719e-05
7.40368123e-05	5.35984291e-05
-2.36146025e-06	1.19552380e-04
-4.62538264e-05	8.98009239e-05
-1.04730738e-04	1.70069397e-05
5.93370096e-05	-5.21255570e-05
7.11606335e-05	-1.94837667e-05
1.19421660e-04	5.40828551e-05
8.64725280e-07	9.19583254e-05
-4.68822145e-05	3.04666682e-05
2.22255912e-05	2.59510871e-05
3.12677257e-05	3.82527287e-05
4.10522298e-05	3.80518468e-05
-3.01546152e-06	4.66756574e-05
-3.99176315e-05	1.13820308e-04
-7.98369147e-05	-2.33481005e-05
1.20428849e-05	-1.83830743e-05
3.54150943e-05	-5.35449253e-05
8.53307502e-05	9.13316253e-05
1.65165911e-05	1.44879567e-04
-9.95709779e-05	8.64700778e-05
-3.74661176e-05	4.97138899e-06
2.96036087e-05	-5.36351763e-05
5.07968434e-05	2.88794472e-05
5.77232931e-05	5.83012588e-05
-1.42175725e-06	7.50437030e-05
-2.77769359e-05	8.86502530e-05
9.79833658e-06	-2.26105185e-05
5.06640281e-05	3.54254780e-06
4.64702680e-05	1.05414401e-04
-3.57644021e-05	2.44891780e-05
-9.18231162e-05	1.90076971e-05
2.08239690e-05	-4.26100742e-05
8.07300967e-05	1.18806220e-05
8.54785176e-05	4.75987872e-05
5.56393716e-05	9.58253295e-05
-5.18938941e-05	1.29353080e-04
-4.41715056e-05	5.36583757e-05
-1.32793721e-05	-2.25829372e-05
4.67870486e-05	-1.26522164e-05
1.84202545e-05	5.82797384e-07
4.82167525e-05	1.19069511e-04
-1.26879650e-05	9.30195238e-05
-2.87048097e-05	4.96842040e-06
-1.63118420e-05	-1.36918552e-05
1.20790399e-04	1.33351623e-05
7.26466624e-06	6.85018895e-05
-4.71082531e-05	5.69463955e-05
-5.08447774e-05	1.27160347e-05
-2.00498671e-05	4.10188659e-05
-1.28146439e-05	-8.90530282e-06
2.92753321e-05	4.15266913e-05
-2.70141772e-05	1.07472850e-04
-2.74821032e-05	5.00701244e-05
1.34981137e-05	-1.51199347e-05
4.45166006e-06	-1.67115104e-08
-2.97277475e-05	3.35894219e-05
1.76372996e-05	1.44466603e-05
-4.45844744e-05	5.09541096e-05
-7.22106324e-06	4.27288978e-05
-4.87509496e-05	-1.03692764e-06
6.99528027e-06	3.45553271e-05
3.09374009e-05	2.38620723e-05
2.95410086e-06	8.87501374e-05
-7.13402042e-05	3.70154012e-05
-5.19256209e-05	4.18842428e-05
-1.29930240e-05	-3.72190334e-05
5.27466618e-05	-4.97171532e-05
5.98157894e-05	5.32934610e-05
-1.35439141e-05	1.18165961e-04
-7.31633336e-05	9.55853247e-05
-4.56296293e-05	-4.98766894e-09
-3.52130519e-05	-4.35635811e-05
-2.98917439e-06	4.87345278e-05
-4.04689126e-05	1.16651085e-04
-5.83492147e-05	4.22384765e-05
-2.68271069e-05	-8.29951023e-06
-8.47766387e-07	-3.24373796e-05
8.58710846e-05	-1.24026928e-05
2.17048600e-05	4.28476051e-05
-5.36310690e-05	7.37621303e-05
-1.15917273e-05	1.19989571e-04
-8.25043899e-05	3.34648576e-05
-5.22111186e-05	-2.83005775e-05
7.48095845e-05	-1.01574326e-04
5.34111241e-05	5.06704964e-05
-9.55944051e-06	3.86906868e-05
7.95485448e-06	1.20980389e-04
-4.93002663e-05	-2.05477863e-06
-2.77378385e-05	-5.91940989e-06
4.08588567e-05	-2.44723269e-05
-3.72040959e-05	2.57824322e-05
-6.12022995e-05	4.76101777e-05
-3.74696210e-05	3.04650675e-05
4.03651902e-05	-9.33798874e-05
3.93324008e-05	-2.74949834e-05
4.18221643e-05	6.84052357e-05
-6.55547046e-05	1.98925736e-05
-3.66034874e-05	3.47534915e-05
-1.71638185e-05	-7.25346617e-05
-2.35144034e-06	-1.03393104e-04
3.14153040e-05	2.19463618e-05
-2.37668810e-05	1.73340086e-05
-2.99527201e-05	-2.14641132e-05
-8.79377476e-05	-3.16911428e-06
-3.38120080e-05	-2.73448641e-05
1.62720535e-05	-1.76477920e-06
2.44772818e-05	1.96785077e-05
-2.06952918e-05	1.00852500e-04
-7.61478077e-05	4.03015947e-05
-4.54026158e-05	1.00115230e-05
3.25618967e-05	-8.71370357e-05
8.75940168e-05	-1.95999655e-05
1.03100814e-04	3.26285081e-05
5.08509947e-05	1.01398866e-04
-4.80376584e-05	1.31453271e-05
-5.53196987e-05	-6.58030549e-05
1.11620320e-05	8.07054494e-06
6.84613042e-05	-1.30914705e-05
5.51294397e-06	7.69513936e-05
-4.65481644e-05	5.10644204e-05
3.33881908e-05	-5.89864540e-05
7.46751830e-05	-4.27124178e-05
2.08427300e-05	2.47990301e-05
2.30363985e-05	4.33129480e-06
-1.98626985e-05	5.93703153e-05
-4.77156209e-05	-2.78382031e-05
4.37180424e-05	2.58735308e-05
3.68123001e-05	-5.85347589e-05
8.30325589e-05	3.10425094e-06
2.47879143e-05	3.15868965e-05
-1.69867508e-05	8.84820474e-05
-2.22998860e-05	6.00994099e-06
-3.47252826e-05	4.54369820e-06
6.13497032e-05	8.01273291e-06
8.19785964e-06	6.25089233e-05
-3.03317247e-05	5.22336013e-05
-1.29118707e-05	1.17984146e-05
-5.91518910e-05	-4.79400333e-05
5.20252870e-05	1.40028651e-05
6.77188436e-05	2.62035519e-05
9.05904017e-07	7.66613739e-05
-6.52410890e-05	3.27701855e-05
-7.17874500e-05	3.27580274e-05
-2.40445297e-06	-4.98707741e-05
-1.75360492e-06	-5.35594190e-05
3.11744516e-05	1.49798343e-05
9.32858165e-05	2.13974708e-05
-1.59452557e-05	1.55156376e-05
4.19044882e-05	4.67055361e-05
-1.09090597e-05	6.37381236e-05
2.21256996e-05	-5.75058584e-06
-1.09037519e-05	4.30195942e-05
-5.97124999e-05	6.09824856e-05
-5.21084330e-05	2.47261705e-05
-2.17285797e-05	3.03492779e-05
3.52091702e-05	6.88624141e-06
6.83129401e-05	3.64945481e-05
1.24324174e-06	6.52700110e-05
-7.06837818e-05	4.48369392e-05
-1.43516183e-04	-1.78743958e-05
-2.73954247e-05	-2.05685010e-05
4.61679811e-05	-1.42116951e-05
7.67064485e-05	4.95006789e-05
2.45422098e-06	8.11091886e-05
-4.25902435e-05	7.49539686e-05
-4.26693841e-05	-4.94533051e-05
5.64085894e-07	-8.19209981e-06
9.62396007e-06	6.50648944e-05
1.90268620e-05	4.89849990e-05
-5.92125871e-05	9.08035599e-06
-7.21860779e-05	4.39032774e-05
1.38234122e-06	-7.14598173e-07
-3.23589447e-05	2.28680365e-05
6.06378744e-05	-3.96516862e-06
2.20167567e-06	4.51234118e-05
-2.09413047e-05	-1.13969418e-06
-1.21427787e-04	-3.06803231e-05
-1.72911386e-05	-5.48226353e-06
1.28073261e-05	-4.57511851e-05
1.16170968e-05	6.02792497e-05
-3.80536258e-05	5.26808544e-05
-5.26119184e-05	5.53360633e-06
-8.58474596e-05	-3.36143530e-05
1.60647460e-06	-2.60635006e-05
1.07637434e-05	4.68762773e-05
-5.98939732e-05	8.27268450e-05
-6.50476068e-05	3.41940977e-05
-9.37727673e-05	-5.47864183e-05
-2.83370719e-06	-4.49913678e-05
3.49396250e-05	2.43928980e-06
-2.36823471e-05	2.74204176e-05
-9.16104000e-06	3.20524050e-05
-5.67964817e-05	7.06905212e-06
-1.63358181e-05	-1.31680845e-05
-1.31370198e-05	-7.04534759e-05
5.69241020e-05	-5.82199254e-06
-5.72771751e-06	9.02156535e-06
-5.81206114e-05	9.95309711e-06
-9.17502402e-05	-5.50528875e-06
-6.25947723e-05	-1.93353499e-05
8.05109667e-05	-2.06892637e-05
2.95452264e-05	4.31497938e-05
-6.48567948e-05	3.68335577e-06
-1.11318441e-05	-8.66293522e-06
-4.98509689e-05	-9.22343752e-05
7.86054898e-06	-7.54829234e-05
-6.83427970e-07	-3.98325465e-05
1.06238012e-05	4.97691472e-05
-7.98161273e-05	3.66876739e-05
-4.10483699e-05	-4.79042828e-05
1.72986493e-05	-7.32411354e-05
1.03296570e-05	-7.23001222e-06
-8.13703991e-06	-1.31098650e-05
-3.73518969e-06	-1.78557639e-05
-4.88411533e-05	-2.99836174e-05
9.28609188e-06	-5.00883179e-05
1.57694558e-07	-4.73981490e-05
-6.55548661e-07	-2.15827131e-05
1.28045585e-05	5.28337550e-05
-2.75377861e-05	2.68885342e-05
-9.09025766e-06	3.43306456e-05
-2.62044450e-05	5.33463981e-06
-1.13346905e-05	-3.81445534e-05
4.32414599e-05	-3.51504204e-05
-2.22345952e-05	3.53911419e-05
-9.34853524e-05	-5.37565029e-07
-5.58840693e-05	-3.37738857e-06
5.48530516e-05	-4.47972197e-05
7.01370709e-06	-1.26604536e-05
-1.65200800e-05	4.17487827e-05
-3.37918027e-05	7.80982737e-06
-7.95432570e-05	-1.80283932e-05
5.90812488e-06	-6.50481306e-05
1.62683300e-05	-2.91137021e-05
3.69327790e-05	-1.51018185e-06
7.64551078e-05	5.18208035e-05
-1.55377038e-05	3.47874629e-05
-4.39048817e-05	-2.76152987e-05
2.20281945e-05	-6.33414820e-05
4.09600107e-05	-1.24458475e-05
1.35070486e-05	4.07714324e-05
-9.76797401e-06	6.20652572e-05
-9.64646824e-05	1.18230801e-05
-4.27726845e-05	-5.65040573e-05
3.19291030e-05	-3.97870172e-05
5.69870144e-06	-9.95018581e-07
2.60583438e-05	4.18985910e-05
-2.16232384e-05	2.38726916e-05
-4.03367012e-05	-4.58744489e-06
-1.99947272e-06	-6.26664696e-05
5.50503973e-05	-1.12430898e-05
6.59184443e-05	2.78746138e-05
-3.29903814e-05	3.35152909e-05
-3.95216666e-05	2.42185743e-05
6.05556816e-05	-1.07249571e-06
4.80164817e-05	-3.17243976e-05
7.57140369e-05	2.78473963e-05
2.31116810e-05	4.40098956e-05
1.99035203e-05	6.92694666e-05
-3.22465121e-06	-3.08002200e-05
-2.18652640e-05	-2.54757397e-05
5.19856912e-05	-6.42871782e-06
2.94758629e-05	6.66069172e-05
-3.73572539e-06	3.06823349e-05
-2.77391046e-05	5.67044845e-06
2.40685913e-05	-4.87750949e-05
1.29370210e-05	-8.07651159e-05
5.49585384e-05	4.49599684e-05
5.56703453e-05	4.86453682e-05
3.09482421e-05	3.25357687e-05
1.14180466e-07	6.39547807e-06
-1.50318683e-05	2.72185080e-05
-1.35537357e-05	-5.36202879e-06
4.79525188e-05	3.45219451e-06
2.01509247e-05	3.40707193e-05
-3.57439858e-05	3.13993769e-05
-5.62835048e-05	-1.16023430e-05
-3.72304821e-05	-2.27735927e-06
1.73240751e-05	-1.21979228e-05
4.83458607e-05	2.03753516e-05
3.46544693e-05	1.02304613e-04
-7.39520838e-05	3.81433210e-06
-2.04093085e-05	1.74348734e-05
-3.81986138e-06	2.42618489e-06
2.68176263e-05	2.91929991e-05
-1.57757331e-05	3.37313650e-05
-4.59854236e-05	3.28368988e-05
4.24545578e-06	-3.34648139e-05
1.43057814e-05	-6.17238584e-06
-1.77255588e-05	-4.10898720e-05
4.14290935e-06	3.13899545e-05
-7.20702301e-05	5.20023314e-05
-1.59006177e-05	1.02517042e-05
-7.98839683e-05	-2.43470840e-05
3.50034825e-05	2.13654075e-05
1.12123562e-05	-1.89912862e-05
-1.63908271e-06	6.25217945e-05
-5.65193841e-05	9.17957732e-05
6.09272793e-05	-2.15818764e-05
-3.37909878e-05	1.78471055e-07
-5.16063210e-06	-3.26993431e-05
2.57383272e-05	-3.30972725e-05
-4.73367618e-06	-5.24774669e-06
-2.23999341e-05	3.61108287e-05
-4.64989498e-05	1.09352131e-05
2.55366976e-05	-3.68367910e-05
-2.13277090e-05	-7.11409757e-06
-2.22334097e-06	1.27793983e-05
-7.22215336e-05	6.62014500e-05
-1.11735753e-04	-2.85946480e-05
-4.45963087e-05	-3.68981200e-05
-2.72385914e-05	1.33206631e-05
3.17162921e-05	1.27744443e-07
-5.91089956e-05	1.17530453e-05
-1.07950422e-04	-3.48598041e-06
-1.05850013e-05	2.78258885e-05
-1.13028964e-05	-1.29135224e-05
-2.23258085e-05	-5.42634007e-05
-1.28818965e-05	3.52610768e-05
-4.44709876e-05	5.60767985e-05
-1.47777118e-05	-3.49860893e-05
-1.10542114e-05	-3.30036455e-05
3.99978489e-06	3.78281111e-05
1.82982567e-05	-1.87921942e-05
-4.74934059e-05	-1.45043587e-05
-3.69119443e-05	2.71224944e-05
-2.03801592e-05	-1.75961359e-05
-2.04702083e-05	-7.01375684e-05
4.49214931e-05	-1.93063388e-05
4.73998844e-05	-3.31411138e-06
-6.21065192e-05	7.97615139e-05
-8.40585417e-05	6.44762167e-06
-3.15549114e-05	-1.00505735e-04
3.32169875e-05	-1.48496874e-05
-1.01687256e-05	6.85513123e-06
-3.78065306e-05	6.07032489e-05
-4.84411212e-05	2.05643937e-05
1.03834473e-05	-5.67713796e-05
1.79988747e-05	-5.38164968e-05
-1.41142536e-05	-4.17913361e-05
5.13210216e-05	-2.42517581e-05
2.21637438e-05	6.42531595e-05
-4.46127815e-05	-1.87048954e-05
-8.87349961e-05	-1.99558472e-05
-6.17396581e-05	2.90157841e-05
3.23534914e-05	-3.34418728e-05
-3.47734276e-05	-3.25477886e-05
9.60235775e-06	4.67585451e-05
-2.43672293e-05	-8.60864930e-06
-9.08545699e-05	-1.02962795e-05
-2.62134090e-05	-6.34538883e-05
5.28009059e-06	-2.62673766e-05
1.59478714e-05	1.18215939e-06
-2.71845347e-05	1.91411691e-05
-2.77284707e-05	-7.30733154e-05
8.22848233e-06	-2.69124757e-05
2.06031254e-05	2.57703723e-05
2.42295100e-05	-2.00831164e-05
-7.98936235e-05	2.86239883e-05
-2.96870785e-05	2.05798115e-05
-1.65660349e-05	-5.03638730e-05
1.80080042e-05	-6.87345528e-05
4.52251479e-05	5.39092798e-05
2.07348112e-05	1.25540710e-05
2.88586284e-06	2.64950359e-05
-1.50520909e-05	-6.29597298e-06
-3.83222687e-06	-6.96003335e-05
-2.00061277e-05	2.55685118e-05
5.46933588e-05	2.07659978e-05
-1.51068216e-05	1.69614868e-05
-7.27388542e-05	1.49691941e-05
-3.56242599e-05	-1.86110865e-05
1.44755631e-05	8.70003441e-06
2.50087141e-05	3.78329823e-05
2.97000188e-05	2.67156156e-05
-1.83582069e-05	4.19967218e-05
-7.03113474e-05	-5.53056816e-06
2.79534834e-05	-2.83172335e-06
3.67511166e-05	-1.87364312e-05
2.25386793e-05	4.63955075e-05
8.85633290e-06	2.88641149e-05
-1.42403806e-05	2.74871090e-05
5.03500851e-05	8.82227687e-06
3.51291237e-05	-6.98726399e-06
5.21677248e-05	4.03123740e-05
9.28648842e-06	1.70015610e-05
-5.76099374e-05	4.46666054e-05
1.23909376e-06	5.99995519e-06
-1.92679436e-05	-1.60225809e-05
2.75661878e-05	-3.98353586e-05
2.29889683e-05	-4.33834211e-05
5.13832456e-05	1.70868152e-05
-3.08511007e-05	3.47323148e-05
-4.57026108e-05	-1.11955396e-05
-5.88172588e-06	-5.20066533e-05
-1.46983448e-05	-1.56749993e-05
4.75886991e-05	4.74806147e-05
-8.13166262e-05	6.68244975e-05
-1.82229560e-05	5.68325559e-05
-1.66232658e-05	-2.44237845e-06
3.92937691e-05	1.10379260e-05
4.21539262e-05	5.76480888e-05
-4.68700491e-05	2.13051026e-05
5.82911525e-07	9.27310521e-06
3.23654895e-05	-3.94453564e-05
4.31652370e-06	-3.86662359e-05
1.03140492e-05	-2.13633957e-05
3.10390205e-05	5.95365964e-06
-3.14696081e-07	4.30712462e-05
-5.78890540e-05	1.62014694e-05
-6.97457799e-05	-1.33341473e-05
1.61388198e-05	4.30114233e-06
4.64421173e-05	2.89470809e-05
3.62932542e-06	2.31008235e-05
-2.25875010e-05	-2.13579551e-06
-3.71926253e-05	6.90588968e-06
-6.13169759e-05	-2.51952333e-05
-9.81397898e-06	-5.06378383e-05
-7.44720091e-06	1.07760172e-06
-6.90885718e-05	5.47602358e-05
-1.32628527e-04	2.66359239e-05
-5.43929709e-05	-3.22517080e-05
3.33677999e-05	-3.79237135e-05
2.24050491e-05	-3.67066468e-06
2.54513070e-05	6.22092266e-05
3.75721538e-06	-1.82709732e-06
-2.49657733e-05	-5.14628919e-05
3.94811104e-06	-7.77496552e-06
-1.11780901e-05	-7.79407128e-06
-3.55868287e-05	1.28004322e-05
-7.41333133e-05	2.58711134e-05
-6.56992852e-05	2.47736534e-05
-4.84269040e-05	6.94515711e-06
5.22101664e-06	-4.10281100e-05
2.28646986e-05	-1.00050129e-05
2.65739509e-05	2.93429621e-05
2.96361886e-05	1.47166975e-05
-2.87560324e-05	6.24148379e-05
-6.15983445e-05	-9.43237501e-06
-1.80975003e-05	-9.41793332e-05
8.18003391e-05	-6.55467738e-05
-3.83867991e-05	4.75342458e-05
-3.98345801e-05	7.09791402e-06
1.98192720e-05	-2.34541330e-05
1.54568988e-05	-6.33772424e-06
6.14436358e-05	3.16898877e-05
1.37319703e-05	5.74582518e-05
-2.49422992e-05	3.26845657e-05
-5.78233412e-05	2.12159375e-05
-3.67366956e-05	-2.84936887e-05
-4.82643045e-05	-8.02184695e-06
3.94445960e-05	1.39602098e-05
2.94080874e-05	-2.11654842e-05
1.00401157e-05	3.97440999e-05
-5.27691227e-05	3.38102545e-05
-3.75131604e-05	-1.60871532e-05
-5.62670721e-07	-2.09011305e-05
2.72234738e-05	1.80127699e-05
-1.84764758e-07	-7.98614656e-06
-7.13427144e-05	2.85324950e-06
2.53068847e-05	-4.53721623e-06
3.78703335e-05	-4.44284597e-05
1.84729888e-05	2.17150046e-05
1.59279261e-05	6.71002199e-05
-2.89078343e-06	7.99913760e-05
-3.65376036e-05	2.39163892e-05
-2.22735653e-05	-5.38260829e-05
-5.76108505e-06	-4.06553736e-05
4.27235427e-05	-1.98630914e-06
-2.63371076e-05	4.16148141e-05
8.59331976e-06	1.71319844e-05
-2.43270733e-05	-2.24550240e-05
-5.21310285e-05	1.40558050e-05
-7.72523435e-06	-1.50961814e-05
-1.61578246e-05	3.06313159e-05
-1.31518573e-05	1.01144906e-05
-3.17646800e-06	4.10160064e-05
1.66664067e-05	-5.27214725e-05
-3.97410040e-05	-3.18736761e-06
-1.26279956e-05	-4.52021413e-05
-1.86084617e-05	9.82179990e-05
-4.10896519e-06	1.66136324e-05
-1.02806778e-04	1.02664226e-05
-4.59396433e-05	-2.71598692e-05
1.17728423e-05	-3.23757158e-05
5.86914803e-06	4.92486834e-05
-6.60924125e-05	8.91898799e-06
-7.38263479e-05	2.04380522e-05
-7.35052254e-06	-2.92040986e-05
-3.65425767e-05	-4.04977691e-05
-2.20055663e-05	-1.93482592e-05
4.14866881e-05	3.42407729e-05
-3.99714772e-05	1.73426997e-05
-4.89356389e-05	-4.73631007e-05
2.81471766e-05	-5.79973421e-05
3.17385566e-05	-5.02530565e-05
4.89406411e-05	3.50696064e-05
7.44143699e-06	3.27621856e-05
-4.43754834e-05	1.74309971e-05
-4.75976049e-05	-1.67639173e-05
2.33501351e-06	-4.89196536e-05
2.77829495e-05	-2.87559778e-05
1.52523335e-05	-1.43640364e-05
1.10934707e-05	6.49327048e-05
-3.15277794e-05	-3.80147576e-05
-3.22264314e-05	-5.56949417e-05
-3.70290763e-05	-1.38191263e-05
-1.84796897e-06	1.21196745e-05
1.31627512e-05	-2.43369686e-05
-2.01622834e-06	2.61891291e-05
-4.05626924e-05	-5.64136317e-05
4.63825345e-05	-1.94705353e-05
2.60247434e-05	1.16448100e-05
-8.17103046e-06	3.54285839e-06
1.58301373e-06	6.65128209e-06
-2.24874439e-05	-4.11739857e-05
-3.42115163e-05	1.75208570e-05
-1.66039063e-05	-1.67281978e-05
4.97751098e-05	5.53744976e-05
-4.33157693e-05	2.29608668e-05
-9.54949064e-06	4.05796090e-05
-1.76279336e-05	-5.28693672e-05
-3.50493428e-05	-8.19294655e-06
5.76226776e-05	1.15383209e-05
1.89301882e-05	2.88785050e-05
4.73740693e-06	3.82821418e-06
-5.22942755e-05	-4.98084410e-05
-1.40774973e-05	4.41503289e-05
6.91539753e-07	-4.36295304e-05
8.54615573e-05	-2.50043267e-05
5.56787199e-05	1.67379403e-05
1.27897033e-06	1.03607344e-05
-1.60671698e-05	9.81109861e-06
1.52976172e-05	1.17962563e-05
-4.59654111e-05	-1.04744640e-05
-1.76043959e-05	-1.06339567e-05
-9.58380133e-06	7.85146767e-05
-4.42903274e-06	1.43679699e-05
-1.26373543e-05	-8.56404949e-06
-1.12751941e-05	7.11645680e-06
-2.62778485e-06	7.35558569e-05
-3.26228474e-05	5.21194888e-05
-3.98242955e-05	1.36654935e-05
-2.20309830e-05	7.34965397e-07
-3.68621513e-05	-4.71404746e-07
3.39281250e-05	1.54616264e-05
-7.35713911e-06	-3.04711393e-05
-6.36237655e-06	6.10834395e-05
-5.08466801e-05	1.60543877e-05
-1.90115443e-05	-3.62737192e-05
2.34481777e-05	1.22380015e-06
4.95451695e-06	1.56538817e-06
-2.35800580e-05	4.29902066e-05
-6.94328774e-05	3.59316073e-05
-4.38961652e-05	-9.13608892e-06
1.37745028e-05	-3.46240195e-05
3.90513696e-06	5.65524670e-06
6.73611976e-06	-3.50984956e-05
1.11054624e-05	-9.10138806e-06
-9.82686470e-06	-1.78878745e-05
-5.69736549e-05	3.43149622e-05
1.69276245e-06	-1.10826995e-05
-1.82897493e-05	-1.12485113e-05
5.76534512e-06	2.75792918e-05
-1.15401499e-05	3.84852756e-05
-5.13416708e-05	2.85679562e-05
-1.65329238e-05	-1.88578833e-05
1.22345937e-05	-1.83914176e-06
-2.41404523e-05	-9.31954037e-06
-3.07534428e-05	6.81988386e-05
-8.15063831e-05	3.98350348e-05
-6.51994924e-05	1.50909755e-05
-3.58032921e-05	-4.98618647e-07
2.67676824e-05	-5.04138661e-05
-1.53728688e-05	2.41913076e-05
-3.30596995e-05	3.86175343e-05
-2.66985135e-05	3.13497840e-05
-5.97337021e-07	-5.53768259e-05
4.28488693e-06	-3.05934664e-05
-1.10909205e-05	-2.85116766e-05
-4.91134051e-06	4.99997441e-06
-3.20585823e-05	6.03523986e-05
-1.11595589e-04	-1.16226174e-05
1.45420245e-05	-1.59544652e-05
1.54857189e-05	4.30502078e-05
1.45592148e-05	8.30666795e-06
1.84918481e-05	5.43450114e-05
-3.40502156e-05	-7.20804792e-06
-5.51082776e-05	-1.00014593e-04
2.30313635e-05	-9.21402825e-05
4.04370294e-05	3.04101059e-06
9.61306432e-06	4.15337454e-05
-6.36167024e-05	5.45233015e-05
-3.85071653e-05	-1.27208295e-05
-1.82329422e-05	-2.13709027e-05
-2.47028056e-05	-6.05909408e-05
1.05071831e-05	-9.26597568e-06
1.01895639e-05	-1.44881596e-05
-2.94865240e-05	-4.36799310e-05
-3.20888139e-05	-3.78297955e-05
-1.45628255e-05	3.66985296e-06
6.55418671e-06	2.06954501e-05
1.89538478e-05	4.13493290e-05
2.09353202e-05	-2.76506798e-05
2.65853378e-05	-1.18906164e-05
-2.28409590e-05	-2.40672853e-06
2.10234903e-05	-2.51597430e-05
2.76272294e-05	1.83067568e-05
2.88966476e-05	1.71972169e-05
4.83953090e-06	3.34800134e-05
-2.63130260e-05	-3.16097612e-06
4.24345417e-05	1.60989430e-07
-7.30904685e-06	6.31507191e-06
-8.17056753e-06	-1.27900432e-06
-6.08991286e-05	-1.02470322e-05
-1.29036152e-05	-5.92396282e-06
-3.91412186e-06	-1.82437543e-06
6.73218310e-05	2.01559560e-05
6.09925110e-06	4.80566050e-05
-6.62300408e-06	-4.47100047e-06
-6.45801774e-05	4.79164628e-05
2.91458909e-05	-1.13632668e-05
-2.05074411e-05	3.26889494e-05
-1.68441329e-05	-4.06384315e-05
3.82519420e-06	7.15293436e-06
1.92325933e-06	8.95864650e-06
-1.72071632e-05	-2.77194540e-05
-4.16322036e-05	4.95656641e-05
2.83499794e-05	-5.45098046e-05
-6.95164726e-06	-8.36123945e-06
5.02230141e-05	-4.88287606e-06
1.47725259e-05	-1.39734411e-05
-2.13187523e-05	4.86798599e-05
-5.81195354e-06	-1.51500826e-05
4.38038333e-05	-6.29666756e-05
2.59988192e-05	-8.27408367e-05
1.33853237e-05	2.25451768e-05
-4.00677600e-05	1.85516319e-06
5.03917800e-05	-7.10483218e-05
-4.85339988e-05	-7.95667002e-05
2.02926167e-05	5.82856374e-05
3.59523938e-06	7.28185205e-06
1.40591674e-05	2.57381453e-05
-3.44976906e-05	-2.83046666e-05
-2.39779019e-05	7.56611507e-06
-2.14970132e-05	2.21321006e-05
-1.87491642e-05	5.53187601e-05
-3.08109775e-05	1.47599949e-05
-1.33074236e-05	-9.12454925e-06
1.12481275e-05	2.13070725e-05
3.04821369e-05	-4.85961136e-05
3.18918319e-05	6.75952515e-06
2.12566329e-06	-3.95315728e-05
-3.17990889e-05	-1.66027421e-05
-5.29274002e-05	2.37467393e-05
-1.49486204e-05	-3.00031697e-05
-2.56172389e-05	-1.67069848e-05
7.99614718e-05	-1.05324989e-05
2.39836409e-05	1.53853434e-05
-1.53396741e-05	3.69757981e-05
-3.29336181e-05	1.21469902e-05
5.31306159e-06	3.62275432e-06
-1.79516210e-05	-2.20574220e-05
-1.71470163e-06	-1.39420099e-05
-4.63848519e-05	-1.58813168e-06
-6.89642184e-05	-4.70130217e-05
-1.88673584e-05	-5.38605418e-05
1.56027836e-05	-4.89915656e-05
8.07328524e-06	-5.60712615e-05
4.72908250e-05	6.24870154e-05
-5.46650845e-05	1.66847276e-05
-1.54129702e-05	-3.14648751e-05
-4.01798070e-06	-1.57906561e-05
7.10646327e-06	-9.38855919e-06
-1.65853489e-05	7.14356283e-05
2.25020449e-05	3.88594344e-05
-3.11776785e-05	4.13795206e-05
-1.83777265e-05	-2.33968931e-05
-1.73868411e-05	-4.75095439e-05
9.12890027e-06	-9.93742833e-06
9.82108759e-06	3.40139413e-05
-5.63076901e-05	-1.65584024e-05
-7.09466331e-05	-3.48030080e-05
-1.53864657e-05	-4.32390771e-05
1.77077836e-05	-6.62905359e-06
1.59803967e-05	8.31723810e-06
1.63494860e-05	2.38709581e-05
-3.65369488e-05	2.83862446e-05
-3.24368812e-05	-8.14508312e-05
-1.93146334e-05	3.76720300e-06
-5.96352311e-06	-1.75421283e-05
-1.76167505e-05	9.00972191e-06
1.51821741e-05	-4.04058010e-05
-3.84769446e-05	-2.87451312e-05
-3.12916600e-05	9.88797910e-06
-3.53063406e-05	1.57691647e-05
5.15995707e-05	1.34628654e-05
3.13789751e-05	3.07521841e-05
1.12082353e-05	2.95750324e-05
3.26195586e-05	-2.93452877e-06
-4.03425001e-05	-7.00776873e-05
-1.23091113e-05	-5.44556897e-05
-5.47880200e-06	-6.78632614e-06
3.53058422e-05	6.85400664e-05
-5.96352947e-05	6.93605261e-06
-3.40425686e-05	-1.86276811e-05
-2.31886679e-05	-1.77224156e-05
5.87905561e-06	2.03074742e-05
1.29945038e-05	2.92506629e-05
-7.47576996e-05	-1.32913465e-05
-5.69590629e-05	-2.27156033e-05
1.64489538e-05	-2.06407876e-05
3.78229452e-05	-1.11667687e-05
2.04878961e-05	2.46858599e-06
-7.19139571e-05	-2.56536850e-06
-2.94034198e-05	-4.69776533e-05
1.19115930e-05	-3.13517630e-05
1.46657294e-05	-9.08558432e-05
1.27727617e-05	-2.88299270e-05
3.45137664e-06	-1.19379156e-05
-2.22803883e-05	4.07144435e-05
-4.69596635e-05	3.22032283e-05
-6.72393217e-05	-2.23798015e-05