Dangerplot_version	1.0
Number_of_points	2048
Sampling_frequency	2.00000000e+03
Transmitter_frequency	1.27788256e+08
Phi0	0
Phi1	0
PPM_reference	0
Real_FID	Imag_FID	
1.12233041e-02	5.59456181e-04
2.01787818e-02	2.22234102e-03
1.75714493e-02	2.73010135e-03
1.63650606e-02	1.89304817e-03
1.62270032e-02	6.92340545e-04
1.68298353e-02	2.51498073e-04
1.72757208e-02	4.16610856e-04
1.71206482e-02	7.28530344e-04
1.67650394e-02	5.22784889e-04
1.69419125e-02	1.15815550e-04
1.74243189e-02	9.94843431e-05
1.76416803e-02	7.38614239e-04
1.71329677e-02	1.32658519e-03
1.60945915e-02	1.14866253e-03
1.56483594e-02	2.44718976e-05
1.62904486e-02	-9.49983019e-04
1.75030734e-02	-1.13542518e-03
1.84306558e-02	-1.92621723e-04
1.82991680e-02	8.67739320e-04
1.75137315e-02	1.33564509e-03
1.69524420e-02	1.16582308e-03
1.67699084e-02	8.83863308e-04
1.67444795e-02	9.00284387e-04
1.65546704e-02	1.01003330e-03
1.60815977e-02	6.92311209e-04
1.59572270e-02	7.30641186e-05
1.64129958e-02	-4.29375097e-04
1.72522143e-02	-2.08835118e-04
1.73977613e-02	6.80971891e-04
1.67163014e-02	1.32694049e-03
1.57060903e-02	1.10258907e-03
1.53165106e-02	2.30977312e-04
1.58360004e-02	-5.16724773e-04
1.66261289e-02	-3.85344960e-04
1.68623067e-02	1.51198357e-04
1.65075641e-02	5.51023055e-04
1.60784181e-02	2.73935497e-04
1.62458941e-02	-1.14423223e-04
1.67993754e-02	-2.58171931e-05
1.69347282e-02	6.95080496e-04
1.62854269e-02	1.27384020e-03
1.53754652e-02	9.94638074e-04
1.52405286e-02	1.04506966e-04
1.58158727e-02	-5.32828271e-04
1.66420303e-02	-1.59248710e-04
1.68291833e-02	6.94722869e-04
1.59820635e-02	1.22119812e-03
1.50784468e-02	9.48344357e-04
1.48676839e-02	-2.90870667e-05
1.55405523e-02	-5.67049254e-04
1.63561441e-02	-3.01241875e-04
1.64449066e-02	5.52731566e-04
1.57161374e-02	9.35376855e-04
1.50908297e-02	5.69896773e-04
1.52008114e-02	-1.89190963e-04
1.57899186e-02	-3.27223446e-04
1.60696134e-02	2.42900802e-04
1.56135364e-02	6.78249169e-04
1.49641680e-02	4.14830167e-04
1.49490731e-02	-3.29503091e-04
1.57075673e-02	-5.61826513e-04
1.64246559e-02	9.35199205e-06
1.61655359e-02	9.79165430e-04
1.51249794e-02	1.41580345e-03
1.41724767e-02	7.74911663e-04
1.41689926e-02	-3.04700981e-04
1.48793897e-02	-8.85996560e-04
1.57592930e-02	-6.24358538e-04
1.58673376e-02	1.46603270e-04
1.53961340e-02	6.08553295e-04
1.49030350e-02	4.39333846e-04
1.49430977e-02	1.16778538e-04
1.52497683e-02	1.30801927e-04
1.50922127e-02	5.77638624e-04
1.45634348e-02	7.27824634e-04
1.40139759e-02	1.73631357e-04
1.41814975e-02	-5.63822687e-04
1.50279738e-02	-8.69395910e-04
1.57135334e-02	-1.86374178e-04
1.55125009e-02	8.11864622e-04
1.46008916e-02	1.18113449e-03
1.37962326e-02	6.89529814e-04
1.36934929e-02	-1.88750215e-04
1.42035084e-02	-6.08508475e-04
1.46569395e-02	-4.35164198e-04
1.47295166e-02	-2.18746718e-04
1.45992842e-02	-3.55327968e-04
1.49926851e-02	-5.43971546e-04
1.56010799e-02	-1.77387614e-04
1.57545749e-02	7.58056529e-04
1.50368363e-02	1.63436867e-03
1.36416983e-02	1.68561563e-03
1.27271526e-02	6.95915893e-04
1.28782727e-02	-6.27675094e-04
1.39379054e-02	-1.27210375e-03
1.48924682e-02	-7.51251820e-04
1.50592895e-02	1.51562970e-04
1.43667161e-02	5.99642750e-04
1.37192048e-02	3.43639404e-04
1.37321781e-02	-1.25904568e-04
1.40533615e-02	-2.81112734e-04
1.40719563e-02	-5.09652309e-05
1.37319295e-02	-1.44615769e-05
1.35757970e-02	-5.25279436e-04
1.40389856e-02	-1.09122135e-03
1.49835758e-02	-8.70510470e-04
1.54973790e-02	1.23420730e-04
1.48997530e-02	1.33679947e-03
1.35845058e-02	1.58366421e-03
1.25797065e-02	8.90024472e-04
1.25815636e-02	-1.64326280e-04
1.32359695e-02	-6.39251433e-04
1.37012573e-02	-4.11880203e-04
1.36973262e-02	3.42982821e-05
1.32895326e-02	5.54556027e-06
1.32541135e-02	-3.50902788e-04
1.37003334e-02	-5.13916835e-04
1.39915766e-02	-1.31126959e-04
1.37426900e-02	4.58465423e-04
1.29928486e-02	5.16436528e-04
1.24549204e-02	-2.11848412e-04
1.28606874e-02	-1.07811112e-03
1.38973454e-02	-1.27160735e-03
1.46849640e-02	-4.85030469e-04
1.44381169e-02	5.87764662e-04
1.35714030e-02	1.06779439e-03
1.28161563e-02	5.89029863e-04
1.28062638e-02	4.53810208e-05
1.31077748e-02	-8.75787809e-05
1.32484045e-02	1.96941663e-04
1.28910383e-02	3.23147513e-04
1.25894761e-02	2.33179890e-06
1.27591407e-02	-4.92901076e-04
1.32457390e-02	-4.61860327e-04
1.34512726e-02	1.11151021e-05
1.30741196e-02	5.11932303e-04
1.24348616e-02	3.65655520e-04
1.21261179e-02	-3.44870030e-04
1.25712892e-02	-9.97898285e-04
1.33309430e-02	-8.89750198e-04
1.36699956e-02	-2.47368473e-04
1.32717201e-02	2.81683140e-04
1.26611060e-02	3.23367567e-04
1.24762338e-02	-1.67821374e-04
1.28652127e-02	-5.54853817e-04
1.33521259e-02	-1.00106350e-04
1.30748730e-02	5.06762357e-04
1.23481629e-02	6.59743673e-04
1.19540365e-02	1.49449916e-04
1.22322394e-02	-4.27979277e-04
1.27883228e-02	-3.78133962e-04
1.29023530e-02	3.11902724e-04
1.22432914e-02	7.68840546e-04
1.15142055e-02	3.08985356e-04
1.13766957e-02	-6.72489288e-04
1.21059325e-02	-1.21519051e-03
1.30254859e-02	-8.38660169e-04
1.32671250e-02	-1.09518878e-05
1.26547441e-02	5.16162720e-04
1.19933756e-02	4.49414132e-04
1.17868744e-02	-1.71445310e-04
1.22256149e-02	-4.91098734e-04
1.26618743e-02	-2.26040371e-04
1.25445081e-02	2.11960636e-04
1.20775681e-02	3.12234275e-04
1.18605392e-02	-9.25553031e-05
1.21504739e-02	-4.07604035e-04
1.26364846e-02	-1.70071144e-04
1.25318039e-02	5.47987409e-04
1.17090885e-02	8.39594752e-04
1.08984895e-02	3.78354453e-04
1.09633021e-02	-6.30760100e-04
1.16840405e-02	-1.24259666e-03
1.26132779e-02	-9.22868028e-04
1.27063543e-02	-6.71558082e-05
1.21984892e-02	4.11654823e-04
1.17959883e-02	2.16272660e-04
1.17092887e-02	7.82310963e-06
1.18849855e-02	4.00305726e-05
1.17657958e-02	3.43732070e-04
1.13439355e-02	4.19685151e-04
1.08047742e-02	-7.94804655e-05
1.09960865e-02	-8.30555800e-04
1.18846558e-02	-1.17806345e-03
1.26501806e-02	-5.12692146e-04
1.25655197e-02	4.97765373e-04
1.16209118e-02	1.05344923e-03
1.06238071e-02	6.79680612e-04
1.04119144e-02	-3.87010630e-04
1.10453712e-02	-9.48984642e-04
1.17056966e-02	-7.73319975e-04
1.19411023e-02	-3.14684585e-04
1.16525618e-02	1.59749761e-05
1.14504024e-02	-9.15583223e-05
1.16641307e-02	-1.72216911e-04
1.18185692e-02	2.55132094e-04
1.14608705e-02	7.84783624e-04
1.06210718e-02	8.29094555e-04
1.00357458e-02	1.31219160e-04
1.02359457e-02	-9.06056259e-04
1.11288335e-02	-1.21429889e-03
1.19142029e-02	-7.22794328e-04
1.19053237e-02	2.12216284e-04
1.12739000e-02	5.94486250e-04
1.06319655e-02	3.07028182e-04
1.05151059e-02	-1.84961362e-04
1.08728148e-02	-4.11687884e-04
1.10632824e-02	-1.57398637e-04
1.08107720e-02	7.42753036e-06
1.05647268e-02	-2.37369211e-04
1.07211228e-02	-6.79458259e-04
1.14043569e-02	-8.13355669e-04
1.19774779e-02	-1.24581391e-04
1.16757564e-02	8.28630116e-04
1.06806746e-02	1.21314416e-03
9.81089193e-03	5.90616721e-04
9.67899337e-03	-3.81784048e-04
1.03480564e-02	-8.90273077e-04
1.09733678e-02	-5.36511361e-04
1.09440805e-02	-3.51923518e-05
1.05400635e-02	1.20567965e-04
1.03036230e-02	-1.69419043e-04
1.04731293e-02	-4.28810134e-04
1.08082294e-02	-3.60538368e-04
1.07681388e-02	8.51546647e-05
1.02606788e-02	1.28884218e-04
9.89508908e-03	-2.48251832e-04
1.01634068e-02	-7.74135522e-04
1.08818645e-02	-8.80054664e-04
1.14091160e-02	-1.76960253e-04
1.10284416e-02	5.99528197e-04
1.02441208e-02	8.36868770e-04
9.60441586e-03	3.00357118e-04
9.75714251e-03	-3.85367079e-04
1.04207732e-02	-4.72937943e-04
1.06371893e-02	3.80114652e-05
1.02432463e-02	4.83641168e-04
9.57559887e-03	3.21336789e-04
9.37864184e-03	-3.10236821e-04
9.79635771e-03	-7.23717269e-04
1.03847794e-02	-4.95791202e-04
1.04329698e-02	1.14403665e-05
9.87056270e-03	2.10287981e-04
9.51337256e-03	-1.49008585e-04
9.68505628e-03	-7.43301585e-04
1.02984421e-02	-8.06570752e-04
1.07229343e-02	-2.71255616e-04
1.04907360e-02	4.41910233e-04
9.83703602e-03	5.58387954e-04
9.44921188e-03	1.75322872e-04
9.58108716e-03	-2.71188095e-04
1.00457482e-02	-2.78207473e-04
1.01365093e-02	1.53412577e-04
9.72946826e-03	4.11075540e-04
9.29044373e-03	2.33230181e-04
9.32460092e-03	-1.35109760e-04
9.58467834e-03	-2.65971292e-04
9.78951808e-03	4.11840156e-05
9.48372390e-03	2.86317430e-04
8.95916484e-03	4.26671468e-05
8.88122432e-03	-6.14501536e-04
9.46098752e-03	-1.10274740e-03
1.03792176e-02	-8.21158290e-04
1.06140655e-02	4.35984693e-05
1.00504570e-02	7.29691237e-04
9.20254551e-03	6.54872041e-04
8.84975493e-03	5.07486984e-05
9.09009762e-03	-3.93059570e-04
9.59268399e-03	-3.91381327e-04
9.68262274e-03	-1.68373808e-05
9.45071317e-03	1.97295565e-04
9.14217904e-03	-1.42166391e-05
9.26586241e-03	-2.40285881e-04
9.57874767e-03	-3.13371420e-05
9.49052162e-03	4.33196314e-04
8.88127554e-03	6.65975502e-04
8.26601498e-03	1.65004982e-04
8.24577548e-03	-6.75133662e-04
8.97973869e-03	-1.16683193e-03
9.83658340e-03	-8.54454003e-04
1.00482460e-02	1.34769361e-05
9.47727263e-03	5.65139577e-04
8.82650539e-03	4.04192833e-04
8.62113759e-03	-1.19494740e-04
9.01418459e-03	-3.05209309e-04
9.25152656e-03	-7.60448165e-05
9.06978268e-03	3.27258487e-04
8.59661214e-03	2.74627935e-04
8.44221096e-03	-2.50963029e-04
8.95664189e-03	-7.06035527e-04
9.49351303e-03	-4.72608255e-04
9.70775355e-03	2.85806193e-04
9.05803218e-03	8.91987002e-04
8.17962177e-03	7.33905181e-04
7.74894282e-03	-9.61662154e-05
8.16613529e-03	-7.43984012e-04
8.89671966e-03	-8.12836108e-04
9.30323079e-03	-3.63543018e-04
9.08549316e-03	1.40610355e-05
8.85212794e-03	1.08520238e-04
8.83321464e-03	8.45280010e-06
8.96867458e-03	4.60016890e-05
8.79502017e-03	3.85385589e-04
8.26060120e-03	4.42196324e-04
7.90788792e-03	5.00900205e-05
8.00830964e-03	-5.80478285e-04
8.63288436e-03	-8.66566785e-04
9.20994207e-03	-4.59931325e-04
9.26391874e-03	2.63469294e-04
8.58144183e-03	6.15090015e-04
8.00454989e-03	3.66212334e-04
7.89791159e-03	-1.83937838e-04
8.27388186e-03	-5.09031466e-04
8.66939314e-03	-3.09149036e-04
8.57376121e-03	1.27772801e-05
8.25057458e-03	9.01268795e-05
8.10507312e-03	-2.06412282e-04
8.46710801e-03	-4.47233673e-04
8.87530111e-03	-2.35285843e-04
8.75320937e-03	4.34970949e-04
8.12789518e-03	7.57023226e-04
7.46707432e-03	3.74445226e-04
7.47887231e-03	-4.48938692e-04
8.10622610e-03	-7.40959309e-04
8.68651457e-03	-4.26963437e-04
8.60522874e-03	1.81650044e-04
8.08263011e-03	4.14131209e-04
7.62189366e-03	7.08922744e-05
7.76355527e-03	-3.41669889e-04
8.22001137e-03	-4.67957929e-04
8.42658151e-03	-2.14837492e-05
8.13683867e-03	3.21872067e-04
7.74520356e-03	1.49316154e-04
7.58827478e-03	-2.26553762e-04
8.03844910e-03	-4.81728464e-04
8.45479220e-03	-1.46065839e-04
8.47197603e-03	3.74755822e-04
7.86551274e-03	7.01567391e-04
7.27565913e-03	3.87959648e-04
7.27269845e-03	-2.90410826e-04
7.85585679e-03	-5.02316514e-04
8.24539363e-03	-1.43604353e-04
8.01098160e-03	4.10304405e-04
7.46317860e-03	4.52216947e-04
7.12936837e-03	2.44281255e-05
7.36458041e-03	-4.81444877e-04
7.79880863e-03	-4.85941768e-04
7.99162593e-03	-1.75816473e-04
7.77618960e-03	1.32181915e-04
7.45428633e-03	-7.63570424e-05
7.60244997e-03	-3.65923392e-04
7.98695162e-03	-3.40923667e-04
8.14734120e-03	8.52870289e-05
7.91747868e-03	5.15357358e-04
7.35910377e-03	6.21758169e-04
6.98510045e-03	2.56475993e-04
7.11625442e-03	-2.68202974e-04
7.58658070e-03	-3.65402317e-04
7.84555171e-03	3.38412356e-05
7.54966307e-03	4.69929073e-04
7.10571138e-03	4.70284489e-04
6.86092488e-03	-2.43732939e-05
7.10183708e-03	-2.81581189e-04
7.40334019e-03	-1.98188471e-04
7.37256138e-03	9.26887151e-06
7.01122172e-03	3.92138027e-05
6.87207282e-03	-4.09225118e-04
7.30907451e-03	-6.63825893e-04
7.89162051e-03	-5.23261609e-04
8.13745428e-03	2.14003026e-04
7.66630378e-03	8.57151928e-04
6.90433104e-03	7.75570225e-04
6.50495663e-03	2.28511359e-04
6.88015996e-03	-2.62629474e-04
7.34032132e-03	-3.24258028e-04
7.47237541e-03	6.19893253e-05
7.20843067e-03	3.76769545e-04
6.85676653e-03	2.86608265e-04
6.77482970e-03	1.21391495e-05
7.00312853e-03	-5.56518207e-05
7.16592465e-03	2.60239583e-04
6.91689784e-03	4.97164729e-04
6.41704211e-03	2.86679482e-04
6.25920016e-03	-2.98900355e-04
6.73484476e-03	-8.73540121e-04
7.44514819e-03	-7.25671067e-04
7.79139949e-03	1.85436802e-05
7.46925082e-03	6.66687498e-04
6.77782809e-03	7.61117088e-04
6.43508974e-03	2.83624744e-04
6.57292409e-03	-1.06399995e-04
6.89488556e-03	-8.08304176e-05
6.91866828e-03	2.16252636e-04
6.65251538e-03	2.20336253e-04
6.55596517e-03	3.15315556e-05
6.76487805e-03	-2.12206505e-04
7.09161954e-03	-5.89140691e-05
7.07908673e-03	3.56452540e-04
6.66134572e-03	6.84619416e-04
6.09829975e-03	4.94739274e-04
5.91946486e-03	-7.20478129e-05
6.38463628e-03	-4.99829417e-04
6.92116097e-03	-4.27820720e-04
7.09836837e-03	1.16560841e-04
6.86522014e-03	4.66258731e-04
6.38512988e-03	3.47243622e-04
6.35094102e-03	7.05434941e-05
6.58926647e-03	-7.56601803e-05
6.83656335e-03	2.34630425e-04
6.55889744e-03	5.49797434e-04
6.11022906e-03	4.71763080e-04
5.95000386e-03	-3.59537080e-05
6.37620315e-03	-4.07982850e-04
6.85814582e-03	-1.77816488e-04
6.95792492e-03	3.37246573e-04
6.54587615e-03	7.93585787e-04
5.94681874e-03	6.17017038e-04
5.84840542e-03	1.23733189e-04
6.10224064e-03	-1.64193567e-04
6.47528190e-03	-1.28193060e-04
6.53711241e-03	1.48051418e-04
6.26917416e-03	2.92870449e-04
6.08031172e-03	1.67572871e-04
6.22850470e-03	-9.18034930e-05
6.51829178e-03	1.50657725e-05
6.62195589e-03	3.28913098e-04
6.24951441e-03	6.33174088e-04
5.77445421e-03	4.92166728e-04
5.62741887e-03	-4.07113694e-05
6.10390538e-03	-2.24172836e-04
6.59819087e-03	-9.12889373e-05
6.56899577e-03	4.79842070e-04
6.05668919e-03	7.20946118e-04
5.54600917e-03	3.73609131e-04
5.51372766e-03	-1.70711661e-04
6.03452092e-03	-3.25496541e-04
6.46453630e-03	-1.44331716e-05
6.34204550e-03	4.43723868e-04
5.96515508e-03	5.03019430e-04
5.73513564e-03	2.13875435e-04
5.87586965e-03	-5.51996054e-05
6.19350839e-03	5.78172039e-05
6.18866691e-03	4.04505990e-04
5.87825151e-03	6.09679788e-04
5.53720212e-03	3.58204154e-04
5.57471951e-03	4.65897610e-05
5.86812105e-03	-1.32152694e-04
6.18414488e-03	1.44065096e-04
6.05693273e-03	5.35629049e-04
5.58117498e-03	6.37929479e-04
5.29059581e-03	2.49373727e-04
5.38435066e-03	-2.18320973e-04
5.93382679e-03	-3.09661409e-04
6.14322210e-03	4.61467134e-05
5.97733771e-03	4.28716041e-04
5.63311670e-03	3.48791684e-04
5.54506201e-03	7.85822631e-05
5.88165456e-03	-5.44820214e-05
6.15632720e-03	2.38270091e-04
5.98324975e-03	7.27084989e-04
5.42026991e-03	7.41122349e-04
5.06761856e-03	3.88239161e-04
5.19941468e-03	-1.31185399e-04
5.66104986e-03	-2.95121456e-04
6.01751916e-03	1.16614625e-04
5.82504133e-03	5.35724568e-04
5.36478590e-03	6.34868746e-04
5.06463554e-03	2.89094402e-04
5.11916634e-03	-2.84252455e-05
5.52439317e-03	-1.16537092e-04
5.73564973e-03	1.26092229e-04
5.53715974e-03	2.52124621e-04
5.33753308e-03	1.56198163e-04
5.43823652e-03	-1.06467865e-04
5.82829164e-03	-1.50098931e-05
6.06282242e-03	3.62397404e-04
5.68253174e-03	8.53622565e-04
5.12082875e-03	8.60204920e-04
4.76941001e-03	4.09260858e-04
4.94722649e-03	-1.37791503e-04
5.43387700e-03	-1.49942469e-04
5.66565851e-03	1.79327326e-04
5.48613723e-03	4.44719102e-04
5.06968144e-03	4.71748179e-04
4.97946190e-03	2.17049615e-04
5.12308022e-03	7.74315558e-05
5.37103508e-03	1.20231649e-04
5.24330046e-03	3.64760170e-04
4.91209142e-03	3.81106278e-04
4.76396922e-03	4.95102722e-05
5.09603973e-03	-2.83574918e-04
5.58526721e-03	-2.53170962e-04
5.81264077e-03	2.55998923e-04
5.49724232e-03	7.43445707e-04
4.95170662e-03	7.29942229e-04
4.65095090e-03	4.00749035e-04
4.86770691e-03	4.24296595e-05
5.25499834e-03	3.98110133e-05
5.28366258e-03	3.86076747e-04
5.01640653e-03	5.24703180e-04
4.80183680e-03	3.68204550e-04
4.80695954e-03	6.31716102e-06
5.11731207e-03	6.59858342e-05
5.21995546e-03	3.62922321e-04
4.94201062e-03	6.88639120e-04
4.54241317e-03	4.91164741e-04
4.35460918e-03	6.80692028e-06
4.69479617e-03	-3.57853365e-04
5.23924921e-03	-2.41055968e-04
5.47486357e-03	2.06050230e-04
5.18999621e-03	6.08376577e-04
4.73583024e-03	5.80619089e-04
4.59228270e-03	2.35334388e-04
4.77916421e-03	1.72881410e-05
5.10773016e-03	1.92187028e-04
5.09682624e-03	5.81831904e-04
4.71583707e-03	6.73452741e-04
4.40756371e-03	4.66161116e-04
4.53080423e-03	2.86574941e-05
4.84008295e-03	3.37820384e-05
5.02959779e-03	4.28739877e-04
4.78903018e-03	6.31822972e-04
4.38098796e-03	5.46067429e-04
4.20489488e-03	1.80241637e-04
4.49726265e-03	-1.70579209e-04
4.89535183e-03	-3.10242467e-05
5.00051491e-03	3.15039884e-04
4.70261369e-03	5.27651748e-04
4.42088628e-03	4.27802326e-04
4.45094891e-03	2.02136784e-04
4.68191179e-03	1.50047592e-04
4.81980387e-03	3.37458303e-04
4.65751579e-03	5.99745545e-04
4.43052268e-03	5.52195590e-04
4.27082879e-03	1.92151580e-04
4.45662905e-03	1.40982447e-05
4.77141701e-03	1.89015176e-04
4.78842622e-03	5.36483945e-04
4.36832104e-03	7.03324040e-04
4.04474419e-03	4.96945868e-04
4.09330660e-03	2.20898073e-06
4.45138384e-03	-1.72269531e-04
4.82626026e-03	1.13201677e-04
4.76636831e-03	6.07974129e-04
4.28462680e-03	7.40281306e-04
4.09305189e-03	4.77958471e-04
4.18668287e-03	1.61122181e-04
4.42596478e-03	1.52892782e-04
4.63495590e-03	3.33328964e-04
4.36263764e-03	5.88886091e-04
4.08279058e-03	4.86647943e-04
4.04203497e-03	1.85186858e-04
4.36424417e-03	7.53090717e-06
4.62125335e-03	2.15175562e-04
4.57776664e-03	6.32344978e-04
4.21416759e-03	7.84488046e-04
3.79017275e-03	5.56841725e-04
3.88760678e-03	4.48990613e-05
4.22297325e-03	-8.10108613e-05
4.55429032e-03	1.42511912e-04
4.47256910e-03	5.52612590e-04
4.15052054e-03	6.25703484e-04
4.02122363e-03	3.99834826e-04
4.08282178e-03	2.39393208e-04
4.35444154e-03	3.66073335e-04
4.24231216e-03	6.26304070e-04
3.92819522e-03	7.35617010e-04
3.71753611e-03	4.02378384e-04
3.87026230e-03	9.95359151e-05
4.21266071e-03	8.11344944e-06
4.51064203e-03	2.89303949e-04
4.31184657e-03	7.12890644e-04
3.93200386e-03	7.89398793e-04
3.62005341e-03	4.99886344e-04
3.62672424e-03	1.02519756e-04
3.99314892e-03	5.97581966e-05
4.26255539e-03	2.24636635e-04
4.20388440e-03	4.66469908e-04
3.94517090e-03	5.62590547e-04
3.83748068e-03	3.02964472e-04
4.12520953e-03	1.83359720e-04
4.31820657e-03	4.48910403e-04
4.19080583e-03	7.24231824e-04
3.77505342e-03	8.85520130e-04
3.54638626e-03	4.83661133e-04
3.56427440e-03	1.25151942e-04
3.98028875e-03	6.00430649e-05
4.12969291e-03	3.50143178e-04
4.02684184e-03	6.68316847e-04
3.68824950e-03	6.64684630e-04
3.56733100e-03	4.34031943e-04
3.71259451e-03	1.25681050e-04
3.89520102e-03	2.71605968e-04
3.90090095e-03	4.92435182e-04
3.65421176e-03	5.37858519e-04
3.54512432e-03	2.91535369e-04
3.65272979e-03	2.37094355e-05
4.05494589e-03	1.40949269e-05
4.28267103e-03	4.32263041e-04
4.12257202e-03	8.64501402e-04
3.62823275e-03	9.76007548e-04
3.30145564e-03	5.51685167e-04
3.38987261e-03	2.00595518e-04
3.78249586e-03	9.68028689e-05
3.98979010e-03	4.39924857e-04
3.75259807e-03	7.27162173e-04
3.37153976e-03	6.77446369e-04
3.32315988e-03	4.07842133e-04
3.56359011e-03	2.06618832e-04
3.80197726e-03	2.66397867e-04
3.68761271e-03	5.04022464e-04
3.50339757e-03	5.52302576e-04
3.27417813e-03	2.73806450e-04
3.52539588e-03	3.47112655e-05
3.83606739e-03	1.25918363e-04
3.98646155e-03	4.15497809e-04
3.77101963e-03	7.26541271e-04
3.46940453e-03	7.22214463e-04
3.27598304e-03	4.47553699e-04
3.44876992e-03	2.10920465e-04
3.72685748e-03	3.36544239e-04
3.75157851e-03	6.20794715e-04
3.49060865e-03	7.65174744e-04
3.22180334e-03	6.08014059e-04
3.14037688e-03	2.40765046e-04
3.51250451e-03	1.17635005e-04
3.67107987e-03	2.50907266e-04
3.56348441e-03	6.15107594e-04
3.26361717e-03	6.19916129e-04
3.11181671e-03	2.88040261e-04
3.31008108e-03	5.75004378e-05
3.69552965e-03	1.44008896e-04
3.75169748e-03	4.61439020e-04
3.52563197e-03	6.53837807e-04
3.26055055e-03	6.43597567e-04
3.18535697e-03	3.84041225e-04
3.34831816e-03	2.44415598e-04
3.55725293e-03	3.68618523e-04
3.50956549e-03	5.84393390e-04
3.28039331e-03	6.12342148e-04
3.10797989e-03	5.48092299e-04
3.23095522e-03	3.21139465e-04
3.41915712e-03	3.38207115e-04
3.46576050e-03	5.31103695e-04
3.24975466e-03	7.00486009e-04
2.96278554e-03	5.68270450e-04
2.94842268e-03	2.21514143e-04
3.26219969e-03	6.61110971e-06
3.64731578e-03	1.81592186e-04
3.62625392e-03	6.02036365e-04
3.26319691e-03	7.79977534e-04
2.92605325e-03	5.87597198e-04
2.91874772e-03	2.61583598e-04
3.25076142e-03	1.54844718e-04
3.39761353e-03	2.95270467e-04
3.30465822e-03	5.75319515e-04
3.07604414e-03	5.65819966e-04
2.97808228e-03	4.05641855e-04
3.10383597e-03	2.44455645e-04
3.31887160e-03	3.79378092e-04
3.30312317e-03	6.60882972e-04
3.07911285e-03	7.21989549e-04
2.82899430e-03	5.34121122e-04
2.77706329e-03	1.72751956e-04
3.05370660e-03	7.78015237e-06
3.33237089e-03	2.25332449e-04
3.32184439e-03	4.96259774e-04
3.09372647e-03	7.04577658e-04
2.85078143e-03	4.70262486e-04
2.85251951e-03	2.15569016e-04
3.09783849e-03	2.22645700e-04
3.24848876e-03	5.07712364e-04
2.98202201e-03	5.93798468e-04
2.77829287e-03	5.14506071e-04
2.81184260e-03	2.53491598e-04
3.05301929e-03	1.00790479e-04
3.28708114e-03	2.99577485e-04
3.22599313e-03	6.69318077e-04
2.91801593e-03	7.76267087e-04
2.68337131e-03	5.53016202e-04
2.70371488e-03	1.92260486e-04
2.96231895e-03	1.00626188e-04
3.11631430e-03	2.63608759e-04
3.08398297e-03	5.51729347e-04
2.87647988e-03	5.57040854e-04
2.77751032e-03	4.35606256e-04
2.85134115e-03	2.95321603e-04
3.06246895e-03	3.65776999e-04
3.05553549e-03	5.97421313e-04
2.79693399e-03	7.34132191e-04
2.55519757e-03	5.70088218e-04
2.63475301e-03	2.26809760e-04
2.87934882e-03	1.23660779e-04
3.16097820e-03	2.90647382e-04
3.02344980e-03	6.48545567e-04
2.75384565e-03	6.73587725e-04
2.51887902e-03	4.60445182e-04
2.64133723e-03	1.38942793e-04
2.85475678e-03	1.73535431e-04
3.00082820e-03	3.98201635e-04
2.83315196e-03	5.16887754e-04
2.65730708e-03	4.62131866e-04
2.68185395e-03	2.65159295e-04
2.87351268e-03	2.17592577e-04
2.97309458e-03	4.55584843e-04
2.86174566e-03	6.62748702e-04
2.64958292e-03	6.42968924e-04
2.40598246e-03	5.46230352e-04
2.45881663e-03	2.97614723e-04
2.77491566e-03	1.75120076e-04
2.87542935e-03	4.04521707e-04
2.76015932e-03	6.70240377e-04
2.44350825e-03	6.23030995e-04
2.30597658e-03	3.56798293e-04
2.54596653e-03	1.41173950e-04
2.84603541e-03	1.91214029e-04
2.83162668e-03	4.71860752e-04
2.62966915e-03	5.99432504e-04
2.47682910e-03	4.39565163e-04
2.48865224e-03	2.52952799e-04
2.79488321e-03	2.51333578e-04
2.97572883e-03	4.19850345e-04
2.80747516e-03	6.78493758e-04
2.49403855e-03	6.54492236e-04
2.36588088e-03	4.11743065e-04
2.43886607e-03	2.98853382e-04
2.66952254e-03	2.90230033e-04
2.74262717e-03	5.24520583e-04
2.58765556e-03	6.51304435e-04
2.31609098e-03	6.12666365e-04
2.25922815e-03	3.56076809e-04
2.41189776e-03	2.02523370e-04
2.64074001e-03	2.52744299e-04
2.63685943e-03	4.81394818e-04
2.41504190e-03	5.35993080e-04
2.34826701e-03	3.67645756e-04
2.42625992e-03	1.82337593e-04
2.69841729e-03	2.68122880e-04
2.74532428e-03	5.04117983e-04
2.52208766e-03	6.62480481e-04
2.22935691e-03	6.50254951e-04
2.20646057e-03	4.32358647e-04
2.38927361e-03	2.13839172e-04
2.61911075e-03	3.14295903e-04
2.64621899e-03	5.35111118e-04
2.37936038e-03	7.03349477e-04
2.18192418e-03	5.93005621e-04
2.20476487e-03	3.10601434e-04
2.37341295e-03	2.28800505e-04
2.51894817e-03	4.01199999e-04
2.44064070e-03	4.99171845e-04
2.21490511e-03	5.32162027e-04
2.15448160e-03	3.47245310e-04
2.31382530e-03	1.53205168e-04
2.55156704e-03	2.03202741e-04
2.61844136e-03	5.23440074e-04
2.40404671e-03	6.89739245e-04
2.15161592e-03	5.84187394e-04
2.05622730e-03	3.43376567e-04
2.24766065e-03	2.04171243e-04
2.42873095e-03	3.45974870e-04
2.47410545e-03	6.27226196e-04
2.25161039e-03	6.28827896e-04
2.07094639e-03	4.64521378e-04
2.18315795e-03	2.92218931e-04
2.30101263e-03	3.34488519e-04
2.39557098e-03	5.10171056e-04
2.15041917e-03	6.75082672e-04
1.92526472e-03	5.44059090e-04
1.97806023e-03	2.74002407e-04
2.17257114e-03	1.19802891e-04
2.47507379e-03	1.56984315e-04
2.47831410e-03	5.36890991e-04
2.15770910e-03	7.43137032e-04
1.99287245e-03	5.98251005e-04
1.95220264e-03	3.08438495e-04
2.17189244e-03	2.13160063e-04
2.39025452e-03	4.03328217e-04
2.31086509e-03	5.54796017e-04
2.09166668e-03	5.88770316e-04
1.96647481e-03	4.04143299e-04
2.11747666e-03	2.57002423e-04
2.28156219e-03	3.67676257e-04
2.19510426e-03	6.04241679e-04
1.98681909e-03	6.17189682e-04
1.81244290e-03	4.29895998e-04
1.84874318e-03	2.59900698e-04
2.10767565e-03	1.57446600e-04
2.21194979e-03	3.54658929e-04
2.15926720e-03	5.28619974e-04
1.92117505e-03	5.76712075e-04
1.84991397e-03	3.90735455e-04
1.96342100e-03	2.04610580e-04
2.14187219e-03	3.06204485e-04
2.21805507e-03	5.05408214e-04
2.01962097e-03	7.11848901e-04
1.79453264e-03	5.68138319e-04
1.76946004e-03	2.97277758e-04
1.97337242e-03	2.09848804e-04
2.16888962e-03	3.42214247e-04
2.13552732e-03	5.43190865e-04
1.91602984e-03	6.98716263e-04
1.75190612e-03	5.27317228e-04
1.76461157e-03	2.30394711e-04
1.92883366e-03	1.65283273e-04
2.17834138e-03	2.95331469e-04
2.08491366e-03	5.82193374e-04
1.93150027e-03	5.06563694e-04
1.84630998e-03	4.00289777e-04
1.90911745e-03	2.83678004e-04
2.05966132e-03	3.68052570e-04
2.08741939e-03	5.53256890e-04
1.86479639e-03	6.10226067e-04
1.67278061e-03	5.05387434e-04
1.74450083e-03	2.70215009e-04
1.93022378e-03	2.96052021e-04
2.06444529e-03	4.33926296e-04
1.97155261e-03	6.58878300e-04
1.70998333e-03	6.00777159e-04
1.64516072e-03	3.79005185e-04
1.77289825e-03	2.20376838e-04
1.94205926e-03	2.44363036e-04
2.08694465e-03	4.66606260e-04
1.98077713e-03	5.79495798e-04
1.79297989e-03	5.65712631e-04
1.72439008e-03	4.05705359e-04
1.88396184e-03	3.02221393e-04
1.94884301e-03	4.45183599e-04
1.97344343e-03	5.87989227e-04
1.76515395e-03	6.12285570e-04
1.68260757e-03	4.95765707e-04
1.71924732e-03	2.86024821e-04
1.85875606e-03	3.53586976e-04
1.96347060e-03	4.86469711e-04
1.81690836e-03	6.75594376e-04
1.59568072e-03	4.95697022e-04
1.55538728e-03	3.45784007e-04
1.74877769e-03	2.30917765e-04
1.94450771e-03	2.94991420e-04
1.95828499e-03	4.72429383e-04
1.76949275e-03	6.03674562e-04
1.65149767e-03	4.68073209e-04
1.68963638e-03	2.84586713e-04
1.81398855e-03	3.00198997e-04
1.92742923e-03	5.00552007e-04
1.77020847e-03	6.71510003e-04
1.60038611e-03	6.34647091e-04
1.51965732e-03	3.20338964e-04
1.66725414e-03	2.26375152e-04
1.85070792e-03	3.03730951e-04
1.88492867e-03	4.80222341e-04
1.76310551e-03	6.69889792e-04
1.53979147e-03	6.04368746e-04
1.49882166e-03	3.53616429e-04
1.60453015e-03	2.91897333e-04
1.77618116e-03	2.84721958e-04
1.72754691e-03	4.66768048e-04
1.59025914e-03	5.21626847e-04
1.53026858e-03	3.82709608e-04
1.62608945e-03	2.81878107e-04
1.83697452e-03	3.12553544e-04
1.89868291e-03	4.52859909e-04
1.80010241e-03	6.30985422e-04
1.49251311e-03	5.63096430e-04
1.44592091e-03	4.14762006e-04
1.60315027e-03	2.46095529e-04
1.75101729e-03	4.15986171e-04
1.76100875e-03	5.35736268e-04
1.59072969e-03	6.41714840e-04
1.42972008e-03	4.50139691e-04
1.50108605e-03	3.13206576e-04
1.62521633e-03	2.98195984e-04
1.62676803e-03	4.18018724e-04
1.58090820e-03	5.47308940e-04
1.41809578e-03	4.46115038e-04
1.41495781e-03	2.79016211e-04
1.55198609e-03	2.14999076e-04
1.71684846e-03	2.86336057e-04
1.75634667e-03	4.74222295e-04
1.56900438e-03	6.43196283e-04
1.43762620e-03	5.77397237e-04
1.39805861e-03	3.35515186e-04
1.55794551e-03	2.85682472e-04
1.72544667e-03	3.34482989e-04
1.63627276e-03	5.62354922e-04
1.49897486e-03	6.87624793e-04
1.36949180e-03	5.13873587e-04
1.40513980e-03	3.41391366e-04
1.59188418e-03	3.21559142e-04
1.65649992e-03	5.22696762e-04
1.46540615e-03	5.93347067e-04
1.27882289e-03	4.65779769e-04
1.29107281e-03	3.10280186e-04
1.48976338e-03	2.21974100e-04
1.66590163e-03	3.15659097e-04
1.60991226e-03	5.65716764e-04
1.42249477e-03	5.75633545e-04
1.32326793e-03	4.43816476e-04
1.36288267e-03	3.27298272e-04
1.53864140e-03	2.70439195e-04
1.56189804e-03	4.51038562e-04
1.55398797e-03	6.32681593e-04
1.34675729e-03	5.49269025e-04
1.28868234e-03	4.91396524e-04
1.33752287e-03	3.18680075e-04
1.55084790e-03	3.12717515e-04
1.56156439e-03	4.49929241e-04
1.38607225e-03	5.68373653e-04
1.25954254e-03	5.22529415e-04
1.26567460e-03	3.27645743e-04
1.44215149e-03	3.10967880e-04
1.56900333e-03	3.86088534e-04
1.51712517e-03	5.95378922e-04
1.34663540e-03	5.82188717e-04
1.23265712e-03	4.33805748e-04
1.33475405e-03	2.96882179e-04
1.49075023e-03	3.38860467e-04
1.46250217e-03	4.49187675e-04
1.39169558e-03	5.56733692e-04
1.23064406e-03	4.92802646e-04
1.24797982e-03	3.15015117e-04
1.39588024e-03	2.95382546e-04
1.44880288e-03	3.96423799e-04
1.40869431e-03	5.08786761e-04
1.28984218e-03	5.75404963e-04
1.16710714e-03	4.45093436e-04
1.20734342e-03	2.51346268e-04
1.41324534e-03	2.53663049e-04
1.48381572e-03	3.87690408e-04
1.39614998e-03	5.67015377e-04
1.23514351e-03	5.93679841e-04
1.18609320e-03	4.39325726e-04
1.31294027e-03	2.61505687e-04
1.45552144e-03	3.72748647e-04
1.41965412e-03	5.37938031e-04
1.24354311e-03	5.64858434e-04
1.14630221e-03	4.98396927e-04
1.19366753e-03	2.90067896e-04
1.40435528e-03	2.84813170e-04
1.45797338e-03	4.88295744e-04
1.31791062e-03	6.25505811e-04
1.13770028e-03	5.84379304e-04
1.09050830e-03	3.81010759e-04
1.16824836e-03	2.55660707e-04
1.37251080e-03	2.51110992e-04
1.43637508e-03	4.19097953e-04
1.39883603e-03	5.46572614e-04
1.23601127e-03	5.48988231e-04
1.16780330e-03	4.04768187e-04
1.23888033e-03	3.17415921e-04
1.36820867e-03	3.99831333e-04
1.35843980e-03	5.32419072e-04
1.18785736e-03	5.37125277e-04
1.11516297e-03	4.40347096e-04
1.18475198e-03	2.92986369e-04
1.30534696e-03	3.05455382e-04
1.41225453e-03	4.49882442e-04
1.16720342e-03	5.77835541e-04
1.06697320e-03	5.21205424e-04
1.02755777e-03	3.47599562e-04
1.16078497e-03	2.76658713e-04
1.37677765e-03	2.47207383e-04
1.30032480e-03	4.21380479e-04
1.20412686e-03	4.97146102e-04
1.08189031e-03	3.95905692e-04
1.15785608e-03	3.26948502e-04
1.29896891e-03	2.92796060e-04
1.38842734e-03	4.53319168e-04
1.23896718e-03	5.74556529e-04
1.11737009e-03	5.09972451e-04
1.03677984e-03	3.73517454e-04
1.19069079e-03	2.98531930e-04
1.27203995e-03	3.25612607e-04
1.26469333e-03	5.09004283e-04
1.14652154e-03	6.03962690e-04
1.04636792e-03	5.66487841e-04
9.82235419e-04	3.07277311e-04
1.19496114e-03	3.03446141e-04
1.30055100e-03	3.37282429e-04
1.17525400e-03	4.39403462e-04
1.05956942e-03	4.43166529e-04
1.06146222e-03	3.15162906e-04
1.16814044e-03	2.09603910e-04
1.27221888e-03	3.28328984e-04
1.30196975e-03	4.48730658e-04
1.15600938e-03	5.56319486e-04
9.68642125e-04	4.85058408e-04
9.41585109e-04	3.63401196e-04
1.11890736e-03	2.73530459e-04
1.20933575e-03	3.91959504e-04
1.19707186e-03	4.97064495e-04
1.07657176e-03	5.45641058e-04
9.00321174e-04	4.62978875e-04
9.20516963e-04	3.08874267e-04
1.08103687e-03	2.40425405e-04
1.16814335e-03	3.35216377e-04
1.08020462e-03	4.53590124e-04
9.43247927e-04	4.25817212e-04
9.27087793e-04	2.64934672e-04
1.04682345e-03	2.64328613e-04
1.18609134e-03	3.15970567e-04
1.16258929e-03	4.60318406e-04
9.95131209e-04	4.69644932e-04
9.13424185e-04	4.30687913e-04
9.58126737e-04	3.01176507e-04
1.10314076e-03	2.36906431e-04
1.17920234e-03	3.37366277e-04
1.13329245e-03	4.88759892e-04
9.98336822e-04	5.03958203e-04
8.84623092e-04	4.02282574e-04
9.31095215e-04	3.41892184e-04
1.06958963e-03	3.81074497e-04
1.07169442e-03	4.15508548e-04
1.01100025e-03	3.95349372e-04
8.68589501e-04	3.69405258e-04
9.15237470e-04	2.87163770e-04
1.03508448e-03	2.36389518e-04
1.17502187e-03	3.51499359e-04
1.10660121e-03	4.73946769e-04
9.36257828e-04	4.77242516e-04
8.06680997e-04	3.67819826e-04
8.71676253e-04	2.05417193e-04
1.01257511e-03	2.08763930e-04
1.10847806e-03	3.78208235e-04
1.06740207e-03	5.31290018e-04
8.57539824e-04	4.83715034e-04
8.52849218e-04	4.00061195e-04
9.52497881e-04	2.39966321e-04
1.00276642e-03	3.07991693e-04
1.00735202e-03	4.62813943e-04
9.18806589e-04	4.97786270e-04
7.63187942e-04	3.57570243e-04
8.09832709e-04	2.67612835e-04
1.01483008e-03	1.72359170e-04
1.01971650e-03	3.49715934e-04
9.92568908e-04	4.60526469e-04
8.58691172e-04	5.17936540e-04
7.71153078e-04	3.95602838e-04
8.55536491e-04	2.78799038e-04
9.92622576e-04	2.82268797e-04
9.92246787e-04	3.68781592e-04
9.41350358e-04	4.73073713e-04
7.74438551e-04	4.46469698e-04
8.69380310e-04	3.03040113e-04
9.36743047e-04	2.59386055e-04
1.02177775e-03	3.75526724e-04
9.15854180e-04	4.61271382e-04
8.36310210e-04	4.11290763e-04
7.11439934e-04	2.77073384e-04
8.27877317e-04	1.90051142e-04
9.93816066e-04	2.36373467e-04
1.05181732e-03	3.23286135e-04
9.32164898e-04	4.78899572e-04
7.89963524e-04	4.83287527e-04
7.66088720e-04	3.31147399e-04
9.01762163e-04	2.41734262e-04
9.10342438e-04	2.72113917e-04
9.58364340e-04	4.18415351e-04
8.17891792e-04	4.47951199e-04
7.80373986e-04	3.55655706e-04
8.40902969e-04	2.59047345e-04
9.49623762e-04	2.76178733e-04
9.79645993e-04	3.54897813e-04
8.86924681e-04	4.66635887e-04
7.27202976e-04	4.46440739e-04
7.13035406e-04	3.23761225e-04
8.26507923e-04	1.88420032e-04
9.64792911e-04	1.98096153e-04
9.59349156e-04	3.85026739e-04
8.41939414e-04	4.66162019e-04
7.33407796e-04	4.21454839e-04
7.87655357e-04	3.15774698e-04
9.06408881e-04	2.66429095e-04
9.53627459e-04	3.26732639e-04
9.00814310e-04	4.39351425e-04
7.40769319e-04	4.30106302e-04
6.63500861e-04	3.64004984e-04
7.46166043e-04	2.92186043e-04
9.29462025e-04	2.83934380e-04
9.21401370e-04	4.14436916e-04
8.04925803e-04	4.63130418e-04
7.11073750e-04	4.22624813e-04
6.78812736e-04	2.95031234e-04
7.65942968e-04	2.10759143e-04
8.80113570e-04	2.24565825e-04
8.87757749e-04	3.25962668e-04
8.14917497e-04	4.42326331e-04
7.46812671e-04	3.72288312e-04
7.39990443e-04	2.67244526e-04
8.40608147e-04	3.14368954e-04
8.50975281e-04	3.19145620e-04
7.84349919e-04	3.60146863e-04
7.34247791e-04	3.49643116e-04
6.93446898e-04	3.02856031e-04
7.62496551e-04	2.80172215e-04
8.91090021e-04	2.64736591e-04
8.48857337e-04	4.05280560e-04
7.08416803e-04	4.38834715e-04
5.72461635e-04	4.00943914e-04
6.27819391e-04	2.70933902e-04
7.72482832e-04	2.06394296e-04
8.38712440e-04	2.79376400e-04
8.11944890e-04	4.16859373e-04
6.84630941e-04	3.65981628e-04
6.62968960e-04	2.99213454e-04
7.24487239e-04	2.04774115e-04
8.72535515e-04	2.32039951e-04
8.81254906e-04	4.05067956e-04
7.27191393e-04	4.47325176e-04
6.25586603e-04	3.85923981e-04
6.49518101e-04	2.84937152e-04
7.04556238e-04	2.06255718e-04
8.46379146e-04	2.76456209e-04
8.19293025e-04	3.64450010e-04
6.94711867e-04	4.22360143e-04
5.92014752e-04	3.52131436e-04
6.28755370e-04	2.52382975e-04
7.00315752e-04	1.39864322e-04
7.94030842e-04	3.10233881e-04
7.62209762e-04	3.15393176e-04
6.61860395e-04	3.32055439e-04
6.98018586e-04	2.37450120e-04
7.07474013e-04	2.22350121e-04
7.99829722e-04	2.53100879e-04
7.96868582e-04	4.15124057e-04
6.72020193e-04	4.40796837e-04
5.60087035e-04	3.19291488e-04
5.69873548e-04	2.17186564e-04
7.14707654e-04	1.73521665e-04
8.02720140e-04	2.68465403e-04
7.26483820e-04	4.01864701e-04
6.61511032e-04	3.98064120e-04
5.52650134e-04	3.82800470e-04
5.92231634e-04	2.22348026e-04
7.07833678e-04	2.47961259e-04
7.17642251e-04	2.75226106e-04
6.37277903e-04	3.08379065e-04
5.81663975e-04	3.38480138e-04
5.51132485e-04	2.40259775e-04
6.18411927e-04	1.88096281e-04
7.05575978e-04	2.64053670e-04
6.97627547e-04	3.25282337e-04
6.18866005e-04	3.64764128e-04
5.25862677e-04	3.81619262e-04
6.39897771e-04	2.17774141e-04
6.72580325e-04	2.47544376e-04
7.58016540e-04	2.80229317e-04
6.41738530e-04	3.81255435e-04
5.11614664e-04	3.24480468e-04
5.83288958e-04	2.54818442e-04
6.37672259e-04	2.06065684e-04
6.61465339e-04	3.25462228e-04
6.30634953e-04	3.53052921e-04
5.31301543e-04	3.64453066e-04
5.27269091e-04	2.76501087e-04
5.60135813e-04	1.56848459e-04
6.33573742e-04	1.92738342e-04
6.75372314e-04	2.66435003e-04
6.65572239e-04	3.88056214e-04
4.91714280e-04	4.55300877e-04
4.75064036e-04	2.77085579e-04
4.85989382e-04	1.82426695e-04
6.43033825e-04	2.43974820e-04
7.26580969e-04	2.47094984e-04
6.31161849e-04	3.46078421e-04
5.60332439e-04	3.62490769e-04
4.98766371e-04	2.57284613e-04
5.55289560e-04	1.74450644e-04
6.25165354e-04	2.33434155e-04
5.96364436e-04	3.74958647e-04
5.61866967e-04	3.67322355e-04
4.88058256e-04	2.23546318e-04
5.34385734e-04	1.64234836e-04
6.56031014e-04	2.19494497e-04
7.12234469e-04	3.12034099e-04
5.86140086e-04	4.11674177e-04
4.80074494e-04	3.38438462e-04
4.48182516e-04	2.15356471e-04
5.35251573e-04	2.61639623e-04
6.20077772e-04	3.08762246e-04
6.10072166e-04	3.20519641e-04
5.89831092e-04	3.19515937e-04
4.74375411e-04	2.89365969e-04
5.51458972e-04	2.70518271e-04
6.30614581e-04	2.27864322e-04
6.40541839e-04	3.21165367e-04
6.19172584e-04	3.57579789e-04
4.35953436e-04	3.34706157e-04
4.11368121e-04	2.35054933e-04
5.03685791e-04	1.74838380e-04
6.44741289e-04	1.92982756e-04
6.32443873e-04	2.62676156e-04
5.20864385e-04	3.71392147e-04
4.82929754e-04	3.30712181e-04
4.77909722e-04	2.81098735e-04
5.30730234e-04	2.18223882e-04
6.28407230e-04	2.63911468e-04
5.95581019e-04	3.54193035e-04
4.62465541e-04	3.65215703e-04
4.31492954e-04	2.21335184e-04
5.41705464e-04	1.98345253e-04
6.00962085e-04	2.21544236e-04
5.97385224e-04	3.15607002e-04
5.25675481e-04	3.98297474e-04
4.32273839e-04	3.19736428e-04
3.99373152e-04	2.32454055e-04
4.38718416e-04	2.38913606e-04
5.76844031e-04	1.91262778e-04
5.91008808e-04	2.68878328e-04
5.36422827e-04	3.32395197e-04
4.92336112e-04	3.38450482e-04
4.94232634e-04	2.42110167e-04
5.35029045e-04	1.97680289e-04
5.71516110e-04	2.54185754e-04
5.47482632e-04	3.55152792e-04
4.26679006e-04	3.30185576e-04
4.65658581e-04	2.28343968e-04
4.78587957e-04	1.78720191e-04
6.16860925e-04	2.58768094e-04
5.53735008e-04	3.38982121e-04
4.61753225e-04	3.79122677e-04
4.02756414e-04	3.03806213e-04
4.33524023e-04	2.20455899e-04
4.84073913e-04	1.73249748e-04
5.27506927e-04	2.35637446e-04
5.53307298e-04	3.12559190e-04
5.02562150e-04	3.06309579e-04
4.03059035e-04	2.40311987e-04
4.80793969e-04	2.24554140e-04
5.57128806e-04	2.38854089e-04
5.57074905e-04	2.81329645e-04
4.58168681e-04	4.09398373e-04
3.48828093e-04	2.65707524e-04
3.93049850e-04	2.39563407e-04
4.92113701e-04	8.92988610e-05
6.30664697e-04	2.13990395e-04
5.73326601e-04	3.46711749e-04
4.36323637e-04	3.58278572e-04
3.69022251e-04	3.04248126e-04
3.64326406e-04	1.74905465e-04
5.21767535e-04	2.14058789e-04
4.97672358e-04	2.28776553e-04
5.02732932e-04	3.23529122e-04
3.92533257e-04	2.22871371e-04
4.49274114e-04	1.98259149e-04
4.72601852e-04	1.66512109e-04
4.93939559e-04	2.68963224e-04
4.96130029e-04	2.87100906e-04
4.44899430e-04	3.45826265e-04
3.27307032e-04	2.50096869e-04
4.10299050e-04	2.06839846e-04
4.86853009e-04	1.81159077e-04
5.03955642e-04	2.35860090e-04
4.93012252e-04	2.74439750e-04
3.72974173e-04	4.00973076e-04
3.88130138e-04	2.42248294e-04
3.99935292e-04	1.67418446e-04
4.54139168e-04	1.53025961e-04
5.17629262e-04	2.37200991e-04
5.06264681e-04	3.02493194e-04
3.52397765e-04	2.71769270e-04
3.57415614e-04	1.74127214e-04
4.84765100e-04	1.10352426e-04
4.59854462e-04	2.62356712e-04
4.70256957e-04	2.79445318e-04
3.70309252e-04	3.25925765e-04
3.70158174e-04	1.99919275e-04
3.75004136e-04	1.37677038e-04
4.12501890e-04	1.96249312e-04
4.81673604e-04	2.57998181e-04
4.38567571e-04	2.93395366e-04
3.93847644e-04	2.61783862e-04
3.67208151e-04	2.52419472e-04
4.23468009e-04	1.35103590e-04
4.06610838e-04	2.04857541e-04
4.53681452e-04	2.37762797e-04
3.82048485e-04	2.97794468e-04
2.89550051e-04	2.23583600e-04
3.69685935e-04	1.69141698e-04
4.64324141e-04	1.54721914e-04
5.24588744e-04	2.17064415e-04
4.28447005e-04	2.92389363e-04
3.64082342e-04	3.28930735e-04
2.90167809e-04	1.76844405e-04
3.41240171e-04	9.53903582e-05
4.37075621e-04	1.71809501e-04
4.88781836e-04	2.47411517e-04
3.60624632e-04	3.01773689e-04
3.41452687e-04	2.11132414e-04
3.48562899e-04	1.92393723e-04
3.56509583e-04	2.06723504e-04
4.12425550e-04	2.34771476e-04
3.61254875e-04	2.57094798e-04
2.75544648e-04	2.82220397e-04
3.67209315e-04	1.76592439e-04
3.60606296e-04	1.31619163e-04
4.05400089e-04	1.64763871e-04
4.23794932e-04	2.44580384e-04
3.70956230e-04	2.35030559e-04
2.83335103e-04	2.23015668e-04
2.61739304e-04	1.41232624e-04
3.10983683e-04	1.53285888e-04
4.31069522e-04	1.96475041e-04
4.17916657e-04	2.82070687e-04
2.86634837e-04	2.96771992e-04
2.82952562e-04	2.07309407e-04
3.20945546e-04	1.21225290e-04
3.80780228e-04	1.34749454e-04
4.22368757e-04	2.04484299e-04
3.81611986e-04	2.72757170e-04
2.47883581e-04	2.53516308e-04
2.44240015e-04	1.25725492e-04
3.13536904e-04	1.58194336e-04
3.90957459e-04	1.50774722e-04
4.19872289e-04	2.13984822e-04
3.81193298e-04	2.39039146e-04
2.98350991e-04	2.34362946e-04
3.39992286e-04	1.90803752e-04
3.80651240e-04	1.95538189e-04
3.76838580e-04	1.98686146e-04
2.96935264e-04	2.21305061e-04
2.96451093e-04	2.21235328e-04
2.50322832e-04	1.73822540e-04
3.24299763e-04	1.29951077e-04
3.93188093e-04	2.49822420e-04
4.10896144e-04	2.76892242e-04
3.50510760e-04	2.50455749e-04
2.21645139e-04	2.57143984e-04
2.48600234e-04	1.48167441e-04
3.21864791e-04	9.35749340e-05
4.02086007e-04	1.10336958e-04
3.38056998e-04	2.61645793e-04
3.50755348e-04	2.53660313e-04
2.62486836e-04	2.12332408e-04
2.73154234e-04	9.20061066e-05
3.38908547e-04	1.79610899e-04
3.76747485e-04	2.40935391e-04
3.74497758e-04	2.58865097e-04
2.27659300e-04	2.67736730e-04
2.83870904e-04	2.02037278e-04
2.72523350e-04	1.23183447e-04
3.59540485e-04	1.75322188e-04
3.83653591e-04	2.50748562e-04
2.17652821e-04	2.01438059e-04
2.29628175e-04	2.44636758e-04
2.46881362e-04	1.43783502e-04
2.76247418e-04	6.01820757e-05
3.26186098e-04	1.84902601e-04
3.29253235e-04	2.28293618e-04
2.74588208e-04	2.05714809e-04
2.85782502e-04	2.03863368e-04
2.54634040e-04	1.60781754e-04
3.09068797e-04	1.75522873e-04
3.57872981e-04	2.67780066e-04
3.27441434e-04	2.47238670e-04
2.11934603e-04	2.06498269e-04
2.93037592e-04	1.47596438e-04
3.99521145e-04	1.36683171e-04
3.90775444e-04	1.77165668e-04
3.51951894e-04	2.35832733e-04
2.86925962e-04	2.42778566e-04
2.23525654e-04	2.17496447e-04
2.30251215e-04	1.83352880e-04
3.10665288e-04	1.02205253e-04
2.89958203e-04	1.59612289e-04
2.87993054e-04	1.73619104e-04
2.42321141e-04	1.96102745e-04
2.29281621e-04	8.98393773e-05
2.97052407e-04	1.41730619e-04
3.27597285e-04	1.84256787e-04
2.95429345e-04	1.96271314e-04
2.85439601e-04	2.19544600e-04
1.54429697e-04	1.55877045e-04
2.31647165e-04	1.52856315e-04
3.14093340e-04	9.42688202e-05
3.77140881e-04	1.49106054e-04
2.33484170e-04	2.50497018e-04
2.41151429e-04	2.64715985e-04
2.35730811e-04	1.33585068e-04
2.17239329e-04	9.22206818e-05
3.05247260e-04	1.47313724e-04
2.99839885e-04	1.64013167e-04
2.48999801e-04	2.16915534e-04
2.07850317e-04	1.69282226e-04
1.63126853e-04	9.28184236e-05
2.71423894e-04	9.81474586e-05
3.72144656e-04	1.46457140e-04
3.02004861e-04	2.25343072e-04
3.06347036e-04	2.87181902e-04
1.75424953e-04	1.60802345e-04
2.24361254e-04	1.17560950e-04
2.72945792e-04	9.66178122e-05
3.32084514e-04	1.74165238e-04
2.96614773e-04	1.74277520e-04
2.30409001e-04	2.10683706e-04
2.18024928e-04	1.16488205e-04
2.40913170e-04	2.08624930e-04
2.45991512e-04	1.50957960e-04
2.52960890e-04	1.90465929e-04
2.20395421e-04	1.71311272e-04
1.79617113e-04	1.39169017e-04
1.99039088e-04	7.41214681e-05
3.18707811e-04	1.14059396e-04
2.74341204e-04	9.27219589e-05
2.75922503e-04	2.27247743e-04
1.90473205e-04	1.64374811e-04
1.57170507e-04	1.59522722e-04
2.24103351e-04	6.18967024e-05
2.62419635e-04	1.06353094e-04
3.19743762e-04	1.79185183e-04
2.62837100e-04	1.86975740e-04
1.62204335e-04	1.64805970e-04
1.88512291e-04	1.14219591e-04
2.86083028e-04	1.06717809e-04
2.50174984e-04	1.52914290e-04
2.59486493e-04	2.47981545e-04
1.92798165e-04	1.82474600e-04
1.97962014e-04	1.40142511e-04
2.26495162e-04	7.64148717e-05
2.87535775e-04	6.45193431e-05
3.25672241e-04	1.75290596e-04
2.49473494e-04	2.22405841e-04
2.22708681e-04	1.71272972e-04
2.18144967e-04	1.33090507e-04
2.62563379e-04	5.86778406e-05
2.90698808e-04	1.07339314e-04
2.81451299e-04	1.92048188e-04
2.85988383e-04	1.88268517e-04
2.04008145e-04	1.33817084e-04
1.91941537e-04	1.29902721e-04
2.43767121e-04	9.55381547e-05
2.44798022e-04	1.52429478e-04
2.39778950e-04	2.25644471e-04
1.51385888e-04	2.10752944e-04
1.56309077e-04	1.26483996e-04
2.23764626e-04	4.51258675e-05
3.00728978e-04	1.54993890e-04
2.32272549e-04	1.67403399e-04
1.73634282e-04	1.87128011e-04
1.24475802e-04	1.71165244e-04
1.80991483e-04	9.02851098e-05
2.21052629e-04	1.42716919e-04
2.31456448e-04	1.00935140e-04
2.76175007e-04	2.11386767e-04
1.77117297e-04	1.54414956e-04
1.56977214e-04	1.43031255e-04
2.16827088e-04	7.06588471e-05
2.58131156e-04	1.27454798e-04
2.35888874e-04	2.14537853e-04
1.31064997e-04	1.99094429e-04
8.12085636e-05	1.33175214e-04
1.35471215e-04	4.33232453e-05
2.41315749e-04	7.83528958e-05
2.77850748e-04	9.63502825e-05
2.29372556e-04	1.61062300e-04
1.81140858e-04	1.77075985e-04
1.43455749e-04	1.70022075e-04
1.30714659e-04	5.16298860e-05
2.01853341e-04	9.91056440e-05
2.60694185e-04	1.26518222e-04
1.73253138e-04	1.36020506e-04
1.70031766e-04	1.73546156e-04
1.84290926e-04	1.08892040e-04
2.30652920e-04	1.11979585e-04
2.20599119e-04	8.48198542e-05
1.96761175e-04	1.61990378e-04
1.78693474e-04	1.82465374e-04
1.59170188e-04	1.61662276e-04
8.51041841e-05	6.30534269e-05
2.01079965e-04	6.71032758e-05
2.36512598e-04	1.14309005e-04
2.25004769e-04	1.68548693e-04
1.88822858e-04	1.29501277e-04
1.43910074e-04	6.77025891e-05
1.62394950e-04	1.21918958e-04
2.01754796e-04	1.20615150e-04
1.74554414e-04	1.11926718e-04
1.24619983e-04	1.52127453e-04
1.35603579e-04	1.62575379e-04
1.65094170e-04	7.99213740e-05
1.78164395e-04	1.27228428e-04
2.11531413e-04	8.61613298e-05
1.68297745e-04	1.37537398e-04
1.66549609e-04	1.54366193e-04
1.00189936e-04	1.46648730e-04
1.60441006e-04	7.14798662e-05
1.23942635e-04	1.06999192e-04
1.76467845e-04	1.26439205e-04
1.35072856e-04	8.30365898e-05
1.63298304e-04	1.50624066e-04
1.14368129e-04	9.32286348e-05
1.92044798e-04	9.71510526e-05
2.99567066e-04	1.04060629e-04
2.00871029e-04	1.40318749e-04
1.10031629e-04	1.62569369e-04
8.11229984e-05	1.12394308e-04
1.21473364e-04	1.23431833e-04
1.74676679e-04	5.40294786e-05
2.04298034e-04	1.00904872e-04
1.28087035e-04	1.80802948e-04
1.05662570e-04	1.52001245e-04
1.08803077e-04	5.23179915e-05
1.59996503e-04	8.35351675e-05
2.13900930e-04	5.34709106e-05
1.84459452e-04	8.79468862e-05
1.36205039e-04	1.36402465e-04
1.26836007e-04	1.19803677e-04
8.14997838e-05	8.44809474e-05
1.95668981e-04	5.85351154e-05
1.72644621e-04	9.23341286e-05
1.23820602e-04	1.61642092e-04
1.05821426e-04	1.48750274e-04
1.21053134e-04	5.48874814e-05
1.42115357e-04	7.06121646e-05
2.02017691e-04	1.08689519e-05
1.55215792e-04	9.01609455e-05
1.34664457e-04	2.05938035e-04
1.26177867e-04	1.44542413e-04
1.38379546e-04	1.05021078e-04
1.43937868e-04	3.84812265e-05
1.64419049e-04	1.05945954e-04
2.06989745e-04	1.38822157e-04
8.97000209e-05	1.24711194e-04
7.65517470e-05	6.56898410e-05
1.62682190e-04	3.39681355e-05
1.58104041e-04	3.51307026e-05
1.83898112e-04	1.33761510e-04
1.07052561e-04	1.53817586e-04
2.38784196e-05	1.23738253e-04
1.03935839e-04	1.35991009e-04
1.04362065e-04	1.00380974e-04
1.29088017e-04	7.05362618e-05
1.43557452e-04	1.00139157e-04
1.29872933e-04	1.05399246e-04
1.28760235e-04	1.21480320e-04
5.79343832e-05	1.23181395e-04
1.43542697e-04	9.10133240e-05
1.43046957e-04	7.54187349e-05
1.09119297e-04	1.24877843e-04
6.26495748e-05	8.95495396e-05
9.55109135e-05	5.66598246e-05
1.28800530e-04	5.87392751e-05
1.45025988e-04	5.88656621e-06
2.13163192e-04	9.43339619e-05
1.29720109e-04	1.54182242e-04
7.68315804e-05	9.79948891e-05
8.29646960e-05	8.48937343e-05
5.13098130e-05	7.75291992e-05
1.96117835e-04	1.16554002e-04
9.96653835e-05	1.16399511e-04
1.62114578e-04	9.89122782e-05
1.32844376e-04	9.98341493e-05
1.15403644e-04	9.65430736e-05
1.54076930e-04	6.81460588e-05
1.18586155e-04	1.08652501e-04
1.16333460e-04	1.14752700e-04
1.09963446e-04	9.02928441e-05
1.17680225e-04	4.29323736e-05
1.29601452e-04	5.86719980e-05
1.76706133e-04	1.06529813e-04
1.21977908e-04	9.23043699e-05
1.37185401e-04	7.10794775e-05
5.63056929e-05	1.18260243e-04
5.19906498e-05	3.95762836e-05
1.17473559e-04	5.72769713e-05
1.99248607e-04	4.55369882e-05
9.96855815e-05	7.33945199e-05
1.36802075e-04	1.10180845e-04
1.38092757e-04	1.24124053e-04
1.03306949e-04	6.04323577e-05
8.85650370e-05	9.20517705e-05
1.39600670e-04	8.84196343e-05
1.19752600e-04	9.18510559e-05
1.17743562e-04	8.87860006e-05
1.03986400e-04	3.86664251e-05
1.29542997e-04	8.38842607e-05
1.24525744e-04	8.65119437e-05
1.45507525e-04	7.05466082e-05
8.83783941e-05	1.28611457e-04
9.81036646e-05	1.04145969e-04
1.14500770e-04	1.94812037e-05
1.27742212e-04	3.30110925e-05
1.00115023e-04	6.54674368e-05
9.78245589e-05	1.20498589e-04
9.89655236e-05	9.28397349e-05
8.14482846e-05	5.01598624e-05
1.24143451e-04	2.09329046e-05
1.88558421e-04	6.09134331e-05
1.78436443e-04	8.98533690e-05
1.02662394e-04	7.21374745e-05
6.46530752e-05	5.70664779e-05
7.61456249e-05	2.92277891e-05
1.01579470e-04	6.42205050e-05
1.44347825e-04	6.03191293e-05
1.32790374e-04	8.38650885e-05
8.84857145e-05	9.16429417e-05
8.23654555e-05	6.24339009e-05
9.27551009e-05	4.45059595e-05
1.35535898e-04	4.33459645e-05
9.20484308e-05	1.19178665e-04
9.91762136e-05	6.34285607e-05
9.91900088e-05	4.21514160e-05
6.77202916e-05	6.07873553e-05
8.98517392e-05	6.35744218e-05
1.26390820e-04	1.07387656e-04
1.40687305e-04	1.04615377e-04
5.80958331e-05	7.11188914e-05
6.76059863e-05	8.84791662e-05
1.76313697e-05	7.40527248e-05
7.41204349e-05	5.57366002e-05
1.38372809e-04	5.62316127e-05
9.31457471e-05	7.25132195e-05
8.65863403e-05	6.17060214e-05
5.67398092e-05	6.21968138e-05
8.23151495e-05	4.53719913e-05
1.41950004e-04	7.40126416e-05
9.35076096e-05	1.36996052e-04
6.76880300e-05	9.96249437e-05
1.09087669e-04	2.43921277e-05
9.56728763e-05	-1.04600713e-05
1.38102478e-04	1.88555859e-05
8.07670876e-05	4.28458916e-05
9.76868032e-05	2.27619385e-05
9.77934833e-05	9.60239704e-05
4.78387810e-05	3.12463999e-05
1.01541249e-04	6.77980715e-05
1.14872229e-04	4.97861329e-05
9.40847240e-05	6.81027377e-05
3.39719882e-05	1.22085607e-04
5.06562646e-05	2.48824290e-05
8.02572176e-05	4.39220094e-06
1.08242566e-05	8.50570868e-05
1.20632918e-04	9.28560403e-05
4.46787089e-05	4.55169393e-05
6.28450216e-05	1.19766526e-04
-1.22753136e-05	5.19493460e-06
5.18271991e-05	2.75952916e-05
7.72049316e-05	5.31350815e-05
1.64107390e-04	4.38999741e-05
1.18123346e-04	1.18711112e-04
4.65280609e-05	4.17524971e-05
4.49675354e-05	7.31978216e-05
4.30551299e-05	3.63408544e-05
9.99377371e-05	6.72980532e-05
5.87964387e-05	7.26068247e-05
7.47455051e-05	3.27392918e-05
7.76786765e-05	2.04626795e-05
9.48635861e-05	4.46518497e-05
1.10615976e-04	7.18896044e-05
5.32649174e-05	3.74544798e-05
1.19965756e-04	8.33032245e-05
7.49314277e-05	2.04970111e-05
1.73289263e-05	3.11080876e-05
4.73889595e-05	1.48604659e-05
7.31341061e-05	3.31167903e-05
7.72029889e-05	6.15661120e-05
7.70847328e-05	5.29355275e-05
7.70898914e-05	9.51604088e-05
6.83539547e-05	2.21484224e-05
4.22846679e-05	2.38894572e-05
6.51467708e-05	3.49903457e-05
5.58282918e-05	7.55597794e-05
8.64609610e-05	5.82655703e-05
4.81037532e-05	6.77631615e-05
1.12734342e-04	5.94371159e-06
7.36153306e-05	3.27708731e-05
9.46312721e-05	6.83324761e-05
4.34028589e-05	9.24218839e-05
9.74760915e-05	4.27734449e-05
4.93205062e-06	3.89134766e-05
2.86628256e-05	1.53983274e-05
7.57279049e-05	2.06275763e-05
5.01297181e-05	5.04533200e-05
4.10314606e-05	2.93692065e-05
3.29949798e-05	8.14098239e-05
4.76902569e-05	1.13990927e-05
7.70692277e-05	3.19660139e-05
8.31497891e-05	6.11810028e-05
7.41214026e-05	1.05758394e-04
2.27201290e-05	3.24105458e-05
8.42746977e-06	2.38186567e-05
3.35079749e-05	-6.36535015e-06
1.21362187e-04	1.93941742e-05
5.83357978e-05	5.31518890e-05
4.19311255e-05	1.24550264e-04
5.09054407e-05	8.01122223e-05
7.26593498e-05	3.40368315e-05
7.84929289e-05	1.93976284e-05
1.21395227e-04	1.24694736e-04
7.67047095e-05	1.09813940e-04
6.98712829e-05	1.72078435e-05
3.61332059e-05	4.04232560e-05
6.14486180e-06	1.86232082e-05
6.92773829e-05	4.93438420e-05
8.52619705e-05	6.64552645e-05
5.24623938e-05	9.04853150e-05
3.47372697e-05	1.24861821e-04
8.11898099e-06	2.82871133e-05
5.81113818e-05	-1.55251182e-05
7.38535964e-05	1.76245849e-05
5.01105606e-05	3.32439959e-05
3.73034709e-05	3.27644157e-05
5.62136711e-06	2.37909262e-05
8.07250763e-05	3.70871712e-05
4.39903961e-05	5.84908739e-05
4.36370392e-05	3.76700154e-05
9.11951138e-05	8.46145049e-05
8.20164860e-05	3.29565664e-05
2.52577829e-05	7.79620896e-05
-8.55364306e-06	3.27141097e-05
1.16164578e-04	7.62907293e-05
6.66158667e-05	9.52436385e-05
2.27886758e-05	6.64518229e-05
3.19128230e-06	4.26676343e-05
5.21945840e-05	2.71616518e-05
2.65666877e-05	-3.22071865e-05
7.08189982e-05	7.57446760e-05
4.81768657e-05	6.59386133e-05
5.52764359e-05	3.33232492e-05
2.33089668e-05	-1.12070657e-05
5.74944497e-05	9.98922624e-05
8.30687932e-05	4.70260929e-05
7.98107067e-05	1.14105685e-04
3.57818426e-05	1.06137057e-04
4.13378766e-05	9.57415705e-06
7.55346628e-05	3.27659000e-05
2.04188473e-05	4.29222709e-05
5.53353821e-05	1.04971376e-04
9.39303573e-05	5.92750112e-05
7.04387276e-06	1.04435778e-04
7.33445850e-05	7.66327430e-05
2.88227311e-05	-2.21560185e-06
1.19771539e-05	8.58940257e-05
3.24832436e-05	-5.15404281e-06
7.27697188e-05	9.99564727e-05
7.60936673e-05	5.82582434e-05
4.34079629e-05	3.61432685e-05
3.17052472e-05	-1.72705259e-05
8.32933001e-05	9.08562797e-05
6.54042924e-06	5.75999584e-05
5.95508682e-05	7.28845989e-05
-1.27968442e-05	1.67135931e-05
1.77815346e-05	2.18467412e-05
4.96457105e-05	7.67183519e-05
9.58954624e-05	7.20624957e-05
4.20031720e-05	1.82150143e-05
-2.35390544e-05	3.46320958e-05
-2.75354796e-05	8.59493666e-05
4.33308742e-07	5.03213669e-05
5.63997819e-05	2.50318481e-05
4.45171354e-05	9.01490785e-05
5.11134822e-05	3.47712885e-05
-2.52569043e-05	6.47759298e-05
4.44709585e-05	7.58362439e-05
2.66260759e-05	3.53043361e-05
1.38138621e-05	4.48812498e-05
8.90336014e-06	5.69501317e-05
-9.67991355e-07	7.64261058e-05
1.64525009e-05	3.58847024e-06
9.39886959e-05	4.36557730e-06
6.79064178e-05	3.76241987e-05
7.20839089e-05	7.77297682e-05
4.59389521e-05	9.05163688e-05
4.32642855e-06	3.34554534e-06
2.30535479e-05	1.46053790e-05
9.28512600e-06	3.47418136e-05
3.59900587e-05	1.03877037e-05
1.48103845e-06	6.33090822e-05
3.51814342e-05	2.27638629e-05
2.67107462e-05	1.44119795e-05
-1.76583781e-05	6.33824748e-05
5.64049042e-05	4.15344803e-05
2.24680334e-05	5.55781662e-05
3.52863026e-05	3.82948929e-05
-1.56405258e-06	4.65533667e-05
-3.94516283e-05	9.98617179e-06
6.26081601e-05	-1.88062841e-05
3.36723824e-05	-1.92795414e-05
-1.42071840e-05	2.04890457e-05
4.26784645e-05	8.97288483e-05
4.08531523e-05	5.03334049e-05
-1.98209109e-05	3.26643494e-05
-2.84987909e-05	4.56844609e-05
2.77168947e-05	9.63466482e-06
-2.67100950e-06	5.23802810e-05
1.54349163e-05	2.99019521e-05
-6.58248337e-06	2.78720199e-05
-4.50349326e-05	-6.29592250e-07
3.80565507e-05	1.57962422e-05
3.20385516e-05	2.20209058e-05
3.99642304e-05	5.36137813e-05
-9.81729409e-06	8.62430988e-06
-1.58386028e-05	4.40380518e-06
3.82532526e-05	9.11015195e-06
3.89691231e-05	4.76015666e-05
1.49807674e-05	8.24625604e-05
3.54083022e-05	4.04432431e-05
4.61910458e-05	2.59910521e-05
-6.32033834e-06	5.84117652e-06
1.78546798e-05	2.53519574e-05
4.22932098e-05	2.04600219e-05
-5.45194325e-06	1.97129229e-05
-2.80435343e-05	-1.49188963e-07
2.86797949e-05	3.81632053e-05
3.34811921e-06	2.77319086e-05
6.81884558e-08	3.93836162e-05
5.24488132e-06	6.19224102e-06
3.34350188e-05	3.12722586e-05
1.66715654e-05	4.22991216e-05
-3.54559088e-05	1.62404394e-05
-2.19073136e-05	-1.87397582e-05
1.81988635e-05	1.95855355e-05
-2.79737969e-06	-1.08253571e-05
3.66119639e-05	-1.33691083e-05
-5.68326577e-05	5.53091049e-05
4.90941238e-05	5.27889788e-05
3.64405096e-05	1.35467517e-05
-5.35186700e-07	5.73888028e-05
-3.59546175e-05	1.85604586e-05
-5.36554180e-05	3.10729665e-05
2.98222540e-06	-1.86857287e-05
2.87792645e-05	-5.70539032e-06
3.06073343e-05	-1.75282476e-05
9.29420130e-05	7.55034307e-06
2.77157997e-05	-1.24753697e-05
2.69119628e-05	5.14671920e-05
2.02104566e-05	4.80311064e-05
2.90106755e-06	1.01719697e-05
-1.51517065e-06	-1.15739804e-05
2.67093965e-05	4.07755142e-05
2.93114499e-06	2.72636007e-05
-3.09959287e-05	3.53232208e-05
5.86567330e-06	9.28502504e-06
-2.41117232e-05	1.17378049e-05
1.81862160e-05	3.81322316e-05
3.76007083e-05	5.24807183e-05
5.78337058e-05	2.68184103e-05
-2.55233999e-06	7.24390120e-05
3.64960251e-05	7.67547135e-06
-4.32049019e-05	-8.70058102e-06
-2.56880958e-05	5.41123954e-05
5.96842401e-05	2.32742477e-05
2.02774154e-05	2.51647289e-05
3.81174250e-05	-2.46047966e-05
1.45181357e-05	3.16981896e-05
-1.30989361e-06	6.83734152e-06
1.87213973e-05	-2.99075873e-06
-9.07887443e-06	3.68426226e-05
-3.18259372e-05	-5.75702652e-05
3.19156461e-05	-2.84661819e-05
5.14841304e-05	2.36146916e-05
-7.40558608e-06	2.30600381e-05
-4.35272850e-05	3.83543593e-05
5.52189340e-06	4.37010822e-05
-4.40683252e-05	4.35089169e-05
-1.67118969e-06	-3.92425427e-05
-1.73964327e-05	-1.90654191e-07
3.16712758e-05	4.43127938e-05
2.94345264e-05	1.03460907e-05
-2.90858861e-05	-7.61356205e-05
-3.59633777e-05	1.75916011e-05
-6.40309663e-05	1.31384677e-05
-3.78753030e-05	-6.81930669e-06
-2.57096908e-05	2.29360667e-05
-2.95881491e-05	6.14347518e-05
4.96017492e-06	-5.03951833e-06
-1.78744558e-05	4.28008934e-06
4.23435995e-05	1.49255520e-05
-1.32113482e-05	8.80566313e-06
-4.05500987e-06	9.98455653e-06
7.54504163e-06	9.71594272e-06
4.52519453e-05	5.16963482e-05
1.49765710e-05	1.51835029e-05
4.25166654e-05	3.30770490e-05
3.08585513e-05	3.72105205e-05
6.02100445e-05	1.04629180e-05
-5.44468276e-06	-8.15338899e-06
2.51298879e-05	9.49224159e-06
5.94960766e-05	1.13084971e-05
-1.28096326e-05	2.80424065e-05
-2.26889733e-05	8.75200567e-06
-1.26646419e-05	1.88357590e-05
-5.92586948e-05	-3.47300193e-05
2.24775358e-05	2.97018560e-05
-9.29398720e-06	1.88994854e-05
-1.52307348e-05	2.20372985e-05
3.42778512e-05	1.14063805e-05
3.86470128e-05	6.31253351e-05
-1.08668974e-05	9.63214734e-06
-2.63219081e-05	-2.11402366e-05
5.46624578e-05	1.26150062e-05
4.08559172e-05	3.80302263e-05
6.73118047e-05	3.69867121e-06
2.98979212e-05	4.61609816e-05
1.77764759e-05	1.35337750e-05
1.50332835e-05	2.07250177e-05
-5.32398335e-05	3.89521665e-05
-1.87844416e-05	6.51761911e-06
4.19049866e-06	3.38847858e-05
1.52708053e-05	-8.58490894e-05
7.04896374e-05	2.89525851e-05
-1.72136170e-05	3.24273715e-05
-1.22694910e-05	-1.10943665e-06
2.51813253e-05	1.51768245e-05
-4.71807689e-05	2.71034751e-05
-2.62760714e-05	-1.82476924e-06
3.61034399e-05	-2.39117071e-05
-1.99568512e-06	4.12689842e-05
-1.69941977e-05	1.37509414e-05
-1.98964444e-05	4.93865718e-06
-4.78548427e-05	-4.15049726e-05
2.05695687e-05	-1.02245485e-05
2.48053893e-05	8.86252019e-06
-1.94576278e-05	1.40312586e-05
-3.28765818e-05	4.62574735e-06
-5.36886091e-06	5.82663488e-05
-5.13356244e-05	3.70351081e-05
-1.11095487e-05	-2.75476873e-06
-1.61911048e-05	-2.08084002e-05
1.92098159e-05	1.02361300e-05
2.60743655e-05	3.43739412e-05
-2.91782435e-05	1.79319650e-05
-3.34095421e-05	6.11758333e-06
2.99799703e-05	2.69493103e-05
4.28194908e-05	2.52919199e-05
-2.34628897e-05	5.53777545e-06
-5.91207827e-05	3.53767246e-05
3.15951074e-05	9.57105476e-06
-1.27105595e-05	1.92562929e-05
-2.63476632e-05	3.45442022e-05
-1.25210927e-05	1.31199067e-05
1.24535754e-05	2.59175631e-05
-2.02715592e-06	3.47447422e-05
1.70646726e-05	4.09629429e-05
2.22651688e-05	2.33621413e-05
-5.72317140e-06	-3.54331023e-05
-5.76209823e-06	3.82837379e-06
4.98047593e-05	2.69153315e-06
-3.04712339e-05	1.61288135e-05
5.12889255e-06	1.79856179e-05
-1.64723224e-06	1.20275827e-05
3.66860186e-05	1.30218359e-06
-1.77823022e-05	7.46639216e-07
2.16284957e-06	-1.10678839e-05
7.40036239e-06	5.12568658e-06
2.89813579e-05	-6.79835375e-06
1.15532466e-05	2.79514506e-06
2.52343179e-05	2.55023479e-05
-7.38645122e-06	1.55213529e-05
1.37247007e-05	-1.68934312e-05
-7.24051415e-06	-1.13189444e-05
1.68191054e-05	-4.13953831e-06
-3.21741709e-06	-3.32118270e-06
-1.22579459e-05	-6.45243381e-06
-1.13905016e-05	-1.37725729e-05
1.27761050e-05	-2.11641091e-05
-7.75742137e-06	1.35404043e-05
9.77532272e-06	3.01201762e-05
2.45248739e-05	1.90509454e-05
5.93753830e-05	3.50828414e-05
3.74594747e-05	-8.42217560e-07
-1.01429378e-05	-5.73630587e-06
-2.44162402e-05	1.06174648e-05
1.62537071e-05	2.66874395e-05
4.21286677e-05	-3.41992018e-05
-9.07063804e-06	1.52177472e-05
-1.78080227e-05	4.18568670e-05
1.46397233e-05	-1.16162064e-05
5.21687980e-05	-1.28203101e-05
1.88968443e-05	4.83012491e-06
2.50439516e-05	-6.12908207e-06
5.77658211e-05	5.10656864e-05
7.51398329e-06	2.52362915e-05
3.49470392e-05	1.14449676e-05
-1.36691951e-05	9.54059578e-06
2.70183427e-05	-3.00951160e-05
8.30373210e-06	2.36160304e-05
-2.02648280e-05	3.94209274e-05
-5.94464564e-06	-6.48492278e-06
8.07072865e-07	-2.78182997e-05
9.63100319e-06	-2.87727812e-06
1.48583749e-05	1.97810514e-05
2.63637921e-05	2.50846279e-06
2.67005598e-05	3.61837192e-05
3.97446020e-05	-2.25328440e-05
-7.70936822e-07	3.37491292e-05
1.35664086e-05	4.28080384e-05
-4.25380676e-05	2.00068971e-05
-1.05899744e-05	-3.11492950e-05
2.51473557e-05	1.42246863e-05
-8.03973580e-06	1.96828842e-05
-3.09089373e-05	-1.16910360e-06
8.18549506e-06	2.27706460e-05
-2.85103833e-05	-2.12500345e-05
-3.95824027e-05	5.56764207e-05
-1.79939816e-05	3.42887506e-05
3.07619921e-05	-4.00793397e-06
-2.27496776e-06	2.69984048e-05
-7.80879691e-06	1.41312858e-05
2.79635515e-05	2.32626626e-05
1.06926091e-05	2.24116029e-05
5.70726916e-05	3.37466099e-06
2.95110149e-05	4.85288547e-05
-1.94260883e-05	7.42903740e-06
1.90109640e-05	-2.28143108e-05
-7.41259328e-06	7.26516009e-06
-4.12099835e-05	2.85707538e-05
2.91842734e-05	2.12365521e-05
-3.61100319e-05	4.02968763e-05
1.40631155e-05	1.31412853e-05
1.03817802e-05	-1.41029295e-06
-1.22888468e-06	8.30942099e-06
2.28274239e-05	3.10500945e-05
-3.49918628e-05	2.19067315e-05
-2.73367787e-05	-8.28460907e-06
1.47032119e-06	-7.57740645e-06
1.94327531e-05	2.32909551e-05
6.51739392e-05	-1.34477841e-05
1.74619381e-05	8.47113597e-08
6.80234643e-06	3.50825417e-06
5.53726168e-05	5.76279599e-05
9.82029815e-06	3.27466951e-05
1.35797782e-05	3.73865332e-05
-8.42574991e-06	-1.34273232e-05
1.42558611e-05	1.83880384e-05
-1.51332515e-05	4.93281277e-07
-3.70304747e-06	4.27730083e-06
5.34021137e-06	1.62498691e-05
3.27029265e-05	-2.46651107e-05
1.59797037e-05	-3.31506963e-05
2.98565810e-05	6.65847547e-05
1.39367658e-05	-3.32328273e-05
1.66883274e-06	3.00691700e-05
1.49829148e-05	8.63017704e-06
-5.54754479e-06	9.16615954e-06
1.92875741e-05	-2.07515423e-05
1.01167279e-05	1.52372168e-05
-7.20141452e-06	2.49353052e-05
-1.34869024e-05	2.43548166e-05
1.29781597e-06	8.38451967e-07
3.35722725e-05	-1.36370782e-05
8.52012636e-06	9.38120365e-07
1.69302821e-05	-7.11216708e-05
-1.19347760e-05	-3.41591731e-05
6.21533263e-06	-9.19977356e-06
1.40624679e-05	-2.50175117e-06
-1.67061226e-05	-1.76183421e-05
-5.92542456e-05	4.96303765e-05
