Dangerplot_version	1.0
Number_of_points	1024
Sampling_frequency	1000
Transmitter_frequency	6.3684e+07
Phi0	0
Phi1	0
PPM_reference	0
Real_FID	Imag_FID
768.831	-3895.92
2051.53	-1453.46
783.368	-108.864
-413.173	-502.32
-180.827	-1622.2
712.292	-1202.09
431.291	-309.006
-473.65	-199.444
-704.994	-1068.03
-88.0541	-1244.88
133.616	-824.933
-287.913	-517.633
-624.966	-1067.61
-214.45	-1476.2
330.611	-1244.43
320.602	-555.34
-264.684	-426.899
-598.122	-827.02
-352.909	-1295.25
73.5106	-1172.14
99.7194	-786.218
-235.527	-607.647
-448.754	-903.625
-210.295	-1132.93
74.1493	-959.503
8.8376	-533.908
-395.63	-480.02
-543.987	-769.3
-299.023	-972.445
-101.748	-734.435
-315.123	-533.466
-548.887	-711.994
-358.349	-1037.13
53.2811	-921.18
78.2861	-501.295
-283.839	-316.539
-480.007	-601.088
-238.193	-735.133
-76.431	-516.42
-312.028	-262.233
-651.311	-469.543
-570.51	-817.769
-215.036	-895.186
-77.7174	-637.372
-250.458	-493.92
-352.765	-621.116
-169.469	-742.665
10.9279	-520.987
-94.198	-275.025
-377.264	-265.777
-452.57	-459.397
-320.105	-538.489
-276.128	-465.7
-343.414	-423.468
-421.835	-553.234
-285.681	-674.777
-93.3096	-604.313
-48.4896	-400.301
-198.808	-332.259
-264.981	-403.418
-220.738	-478.647
-147.991	-381.224
-214.029	-311.855
-319.37	-325.51
-313.247	-468.269
-192.239	-503.941
-109.149	-426.936
-152.166	-334.148
-215.81	-342.192
-202.484	-392.316
-170.752	-355.843
-196.7	-263.723
-305.249	-304.117
-323.292	-405.265
-223.795	-483.777
-137.211	-410.12
-137.761	-350.303
-150.484	-339.954
-119.306	-364.383
-46.6644	-279.698
-120.8	-158.07
-254.735	-146.397
-333.702	-253.386
-267.714	-348.203
-223.028	-350.771
-219.314	-346.472
-203.626	-388.995
-116.324	-426.91
-5.22371	-355.923
13.3969	-221.135
-92.0841	-140.198
-155.633	-147.148
-165.929	-196.545
-171.61	-166.008
-262.83	-179.992
-301.469	-246.891
-240.392	-369.028
-124.148	-385.684
-56.0973	-292.32
-90.1802	-222.731
-113.567	-230.05
-75.6881	-244.474
-40.1912	-184.57
-92.8797	-90.7906
-216.134	-116.74
-238.389	-224.228
-158.296	-291.137
-111.955	-257.008
-107.625	-208.264
-127.673	-212.063
-88.795	-258.125
-38.0492	-206.707
-45.2553	-122.992
-125.488	-101.808
-181.883	-167.861
-128.915	-221.123
-79.1704	-211.683
-76.8307	-136.807
-138.457	-151.046
-132.068	-209.624
-66.1849	-210.438
-13.6135	-127.974
-95.3772	-76.3465
-141.592	-98.4975
-148.068	-176.028
-92.0262	-155.946
-105.848	-127.492
-155.664	-122.961
-146.559	-194.488
-88.0285	-239.781
-23.8405	-195.278
-2.83348	-127.921
-62.5035	-106.233
-72.7497	-114.792
-48.2208	-98.7716
-52.9075	-58.2236
-105.203	-49.2328
-161.723	-91.4132
-147.294	-144.011
-100.6	-172.393
-66.4934	-148.458
-76.2929	-138.516
-74.0066	-161.1
-18.7278	-151.63
13.9224	-113.637
0.0577294	-28.937
-64.6005	-15.5042
-93.7848	-50.6572
-110.917	-84.1715
-76.6887	-69.4542
-102.278	-75.0192
-109.43	-93.1939
-88.9161	-140.489
-41.6396	-135.469
-14.3935	-80.1413
-43.2307	-54.2336
-63.9131	-70.009
-51.9367	-94.1737
-42.6153	-62.0154
-53.5358	-41.9917
-91.729	-67.4079
-73.1142	-93.1805
-56.1297	-123.204
-13.8485	-83.0508
-22.7605	-44.9939
-53.0318	-35.952
-46.2383	-43.9651
-38.0807	-31.744
-71.3952	-24.9935
-79.2497	-41.5813
-97.388	-74.7627
-65.9477	-89.2055
-33.5084	-96.7623
-22.1422	-73.0294
-27.0188	-57.1287
-28.526	-65.1003
-29.4524	-59.7868
-8.41974	-26.1869
-49.0376	-8.55789
-72.0857	-19.5868
-74.4451	-44.5324
-64.397	-61.2928
-60.1511	-59.4785
-45.2984	-58.6024
-38.9982	-66.5185
-11.2174	-73.7675
-5.42012	-50.1564
-0.184776	-15.0942
-28.2753	1.57769
-28.6767	-12.3528
-50.7676	-10.4657
-53.8946	-26.436
-48.2748	-39.5204
-56.7659	-39.3865
-36.6542	-61.9661
-31.9616	-54.797
-28.5334	-49.3226
-20.114	-44.7882
-27.5802	-23.8369
-28.9903	-33.9217
-26.6818	-22.948
-16.5061	-17.696
-43.6576	-25.0889
-42.0492	-28.1985
-21.5012	-38.4958
-38.1885	-24.8754
-22.6521	-22.2086
-13.0468	-15.958
-16.2874	-17.0296
-22.089	-7.2816
-35.7928	-10.4059
-31.5695	-19.5696
-37.1628	-29.6983
-26.157	-32.0968
-30.937	-40.5058
-32.5101	-36.8909
-22.3527	-41.0588
-18.3141	-32.7627
-0.201563	-26.1948
-24.2506	-24.1988
-18.4396	-22.1126
-3.5736	1.38427
-25.122	-11.045
-37.9782	2.37357
-45.0485	-10.728
-38.3039	-31.2803
-20.1728	-28.8385
-15.1864	-11.4936
-25.0008	-29.5503
-13.5822	-19.9564
-8.00209	-37.7765
-6.43937	-5.30597
-9.98044	-1.83536
-19.0917	20.923
-34.233	5.5132
-30.915	-12.8417
-29.4813	-15.105
-26.1697	-19.4958
-24.5466	-21.3363
-21.611	-19.3959
-14.9786	-18.2997
-4.91654	-10.9588
-5.3269	-3.60267
-9.46501	-3.89378
-17.2167	-6.65058
-10.8635	-2.67943
-8.17874	5.57642
-33.5277	-0.95979
-27.9425	-15.0666
-25.6776	-10.3989
-14.4383	-15.2085
-6.28454	-1.99496
-16.3512	-3.65019
-22.7668	-10.4623
-23.1658	-14.5893
-11.8301	-9.00397
-12.1033	-4.03788
-28.0144	2.31899
-15.8865	-13.967
1.71349	-12.9135
-3.96448	-9.14062
-16.4121	7.94648
-1.59016	-3.01481
-14.3692	-12.5986
-13.2211	4.55677
-11.4799	10.0142
-32.1334	18.812
-24.7582	5.98558
-21.5267	-13.5983
0.734105	-8.41231
-3.32225	-4.63553
-2.63054	-5.70862
-10.712	-20.0828
10.7726	0.105226
7.6189	17.5666
-14.5354	-4.01802
-24.8897	-1.07325
-20.9122	-6.65425
-10.897	-7.52619
-10.6089	-3.02492
-15.6327	2.21181
-8.10565	-8.58121
-9.92521	-16.6461
3.12215	-13.3968
-15.799	9.98282
-2.28299	9.83271
-16.9018	-9.36061
-8.31292	-5.97724
-0.836002	2.91568
-10.8545	2.44458
-12.321	13.1302
-12.3074	-12.5993
-12.1824	-20.1028
6.57688	-2.10011
-6.57661	-0.0835874
-6.25687	0.24998
-15.2077	-2.29011
-4.3903	2.20361
-4.97481	11.9301
-10.89	10.8761
-19.6851	-6.6929
-9.7715	-14.621
-3.6615	-8.49475
1.06299	-16.1422
-3.61687	-14.7462
6.9217	-1.11513
6.00268	-10.0472
-1.08125	9.29574
2.67319	5.08486
-11.2904	10.9068
-21.5333	17.9295
-9.49701	3.64651
-4.38117	0.897662
-8.2297	-10.1493
-15.3472	-5.34194
-2.97718	-7.13631
5.93454	-17.9689
4.74731	11.6459
-3.52309	1.98825
-5.01572	4.4494
-2.96916	-4.45233
0.362022	-1.2799
-21.6208	4.41703
-8.30547	-13.7999
-15.0804	-1.6968
12.0011	3.45626
6.67843	-9.23512
-5.10335	1.18611
-11.4689	-1.95767
6.67917	-0.772551
-6.19867	3.06585
3.50817	-3.10761
10.8285	15.1009
-2.59501	-0.258342
5.44731	-2.5069
-1.36687	-1.57005
-8.68081	-1.49934
14.8164	-4.97421
-13.5645	6.52733
-10.2744	7.09408
5.74286	1.19548
1.98066	9.44229
-3.03197	10.2834
-5.45633	13.9227
-11.9346	0.798213
1.52644	2.99497
-1.41988	4.68009
9.71605	4.5378
-11.3745	2.43386
-2.44224	2.43007
2.42521	-4.34701
-5.66007	-5.9802
-14.4846	3.53478
-7.39156	-1.84636
-2.94576	-6.16799
2.71579	2.45093
-6.78427	-6.90762
6.60094	2.93918
3.01804	-9.48988
-1.32992	-5.95206
-4.83156	10.7799
-19.9193	-0.388979
11.5733	14.4257
9.56175	2.3122
-7.56237	9.0972
-7.92382	2.90687
0.207349	10.5838
8.96945	16.3437
-10.9581	9.43115
-2.11439	13.7237
0.766269	-6.93655
15.244	1.39264
5.10628	-0.244051
11.0799	6.39816
2.81457	-4.41296
2.97792	-4.97396
1.24076	5.26465
-1.40022	7.98027
-8.25382	13.6852
-2.31446	-6.21736
2.57	-1.02091
-5.02683	-18.1894
-2.7154	-2.06747
-6.22679	2.78409
3.45889	0.68512
0.103682	-2.33556
0.237448	4.31295
1.63436	5.65279
-2.97566	-10.7541
5.48831	-9.56546
-0.381321	0.900392
-5.76168	-9.297
2.33792	-4.16468
-8.06097	-6.12262
-5.98128	10.0426
-4.91738	8.86788
-10.993	-2.19575
-4.13198	-9.00864
7.28988	-12.7787
-14.0101	7.77768
-2.2201	5.81633
-6.65154	13.6868
-4.82402	-8.38322
7.16313	-2.569
0.654429	-6.44225
-14.0466	2.28544
-13.4512	0.670741
10.9736	-3.80072
7.95793	4.76093
3.12617	0.151354
0.576577	1.91301
-4.80613	-6.20855
1.71248	-5.68445
1.43772	14.2816
-9.16386	9.87173
-1.82119	9.68717
-0.485071	-8.54
8.57067	-8.47668
-15.1948	-8.05898
3.66004	0.708571
-2.62399	-7.29963
5.31827	-0.0325474
9.55884	16.7207
-2.00444	-3.78329
-1.69713	1.27389
-1.22383	-11.3678
0.878261	-5.18242
0.715861	9.96041
-12.5692	-2.41472
-6.90724	-3.77634
-3.63453	6.55778
5.76561	7.11149
-4.74718	5.42131
-11.8585	11.8968
-7.32815	-3.43025
1.37258	-7.15469
0.196406	-3.56657
7.49808	-4.47161
-1.71573	7.57588
0.122072	-7.50391
-5.66044	-10.7326
8.21242	-9.83443
9.23346	-0.988816
-0.158737	5.84179
4.73613	-16.653
0.519633	-4.71496
5.42928	8.30541
0.956788	0.443771
4.1377	-12.4585
-4.86667	-13.8599
-2.98069	-0.624366
5.34183	8.87354
1.76486	8.6992
4.68636	0.249775
-8.75953	10.8941
15.769	0.233134
-14.0528	-7.05295
5.04432	4.54953
-0.458333	-2.46705
-7.43148	6.80142
0.646884	5.48673
-2.97257	0.295252
8.77316	-4.09477
-12.2263	-2.18548
1.15309	5.86188
-7.80652	-4.57299
-4.75135	-6.94121
14.9553	-4.84263
8.23139	-8.78913
-5.49698	-2.47805
-7.16336	7.2491
-2.36297	-3.49995
4.32878	5.46317
14.5544	1.58681
7.74492	3.23419
10.5101	-6.94627
2.21544	-9.99054
3.30806	6.75114
9.23403	2.02472
-1.88902	2.07986
-0.482643	11.4755
-0.720305	-0.18945
-11.6986	4.13252
-4.11531	3.28967
-5.04185	-9.43693
8.18448	-1.78332
0.440639	6.28938
2.82818	-7.46681
3.37189	5.0952
11.0118	7.52965
-6.88199	2.68953
-6.26001	-2.20926
-0.405449	5.28503
18.2128	-4.64954
1.0636	-2.28653
7.17478	1.18084
4.79479	11.1066
-12.6652	-4.99642
-10.9328	11.4108
-4.26587	-7.12745
2.96765	1.75069
8.99788	-9.02643
-5.62766	-4.66399
1.78849	-1.89438
-5.82035	-10.0926
-1.48488	-6.82328
-6.8499	6.59215
-4.12123	7.85497
7.49391	0.963267
1.01435	-5.61694
-3.20913	-4.54458
-0.0220002	-8.09462
8.01856	5.40091
-7.25975	-6.06604
-5.74728	-12.376
9.23851	-2.63975
13.7199	0.442028
-3.28182	-6.15549
1.29547	1.98088
2.25164	-3.85224
-10.7625	-5.33806
1.58885	4.9072
4.46074	0.546745
4.48837	0.627388
2.38035	-8.82277
3.75318	3.16559
-0.282726	0.243925
-4.09844	-13.1677
-7.71833	-9.71607
-9.16724	-15.7659
3.4931	6.04101
-9.20772	-7.57728
-6.30051	-11.9413
-3.55455	-7.34592
6.02224	-6.30783
-3.72681	6.3577
-8.04394	-2.97769
-3.87337	-6.74713
6.23272	1.59125
3.01552	4.44926
0.643049	2.47788
2.44612	12.5257
9.60141	7.28073
9.33287	6.83687
9.37354	7.02739
8.80072	7.60471
-4.27682	13.2484
-15.4646	8.1987
-0.422666	-4.47964
0.286079	9.93935
6.09933	9.571
6.48592	4.51621
-14.7891	1.00386
1.94938	-9.53529
-5.71688	4.06947
-2.02667	-9.69982
5.3272	21.5717
-1.24161	-3.84057
-13.8266	6.66076
5.82653	-10.7081
2.6182	3.23
0.822528	5.37052
-5.67958	-0.669169
3.91249	8.98597
6.76693	-6.17159
-2.29908	-2.39735
-1.08819	4.2037
9.32711	0.822783
-12.7492	5.95191
-9.95677	0.686971
0.197096	-0.850137
-0.68824	1.2061
-0.538757	9.74896
-2.44434	-0.358596
-7.01343	-4.69925
-3.13775	-3.23445
-0.459945	-6.66428
10.3052	9.62528
0.955945	-12.5378
-2.85664	-10.2315
3.1589	-5.47933
3.70027	4.71921
4.06192	2.76574
1.5314	2.37721
0.350364	10.4319
-8.63009	0.400494
1.80371	22.4233
-4.62204	-3.45562
8.3984	3.79301
22.0517	13.2778
-11.9245	8.04355
-7.43328	9.75205
-2.2042	-13.0021
1.97011	-12.5261
1.15152	8.52404
0.915434	5.53482
-7.5677	4.94843
7.42032	-5.54028
1.00852	-0.659269
14.5577	-2.23861
-3.4728	-2.61447
-8.67084	1.92311
0.678784	0.555484
-3.81884	-1.58234
-4.71481	9.48828
-1.03447	4.01703
3.5164	-13.9661
-5.98329	-4.23077
2.49565	-11.4122
-3.29495	-0.842197
6.62197	-6.93283
-1.4658	2.71299
7.45305	0.639544
-2.34188	-4.97437
6.10136	13.7229
1.61294	-5.93287
2.45142	1.10159
-8.51219	4.43241
-0.906834	-8.15773
4.06863	-1.33229
12.5498	20.1175
-7.78522	7.67605
-7.22061	8.69598
2.04006	-10.9032
0.557556	-1.56782
6.42291	7.22468
-12.5797	-16.6671
-5.34158	-8.39515
-5.51111	-4.4596
-1.3831	-0.396292
0.785191	11.3646
12.4542	-3.85777
6.95932	-8.33786
7.8258	-1.91318
-0.36171	-4.45632
-7.12467	-1.98307
10.2079	1.70542
25.483	6.39367
-13.3222	10.5199
-5.39187	-3.02389
0.942368	9.09693
-1.49252	3.53231
-5.9728	11.1011
-17.6881	0.367305
-1.55924	2.21822
11.4783	-5.67009
2.03931	5.77887
3.66066	-3.93888
-11.3997	2.77343
-7.24184	-0.0632687
-0.350822	0.734781
0.942363	-2.32692
0.712678	14.2224
2.71212	15.2876
2.44043	-3.26538
9.11795	0.0517015
3.38567	1.5116
8.82085	12.8869
-2.26177	-1.02806
-17.1023	-0.258931
0.667379	-12.9326
-5.30824	6.63944
-7.90484	-4.48588
-8.33515	6.00622
7.66624	-3.03066
-0.542086	6.66081
-1.15596	-3.61468
0.988652	-7.31209
-8.27557	9.12654
-20.3814	3.20341
-6.97443	8.99477
8.0912	-9.50738
3.50926	-0.725396
3.95781	10.03
-16.054	4.14761
-4.05172	-0.372422
-9.49235	-5.60823
2.14732	9.78882
1.79144	6.42966
2.98136	7.17219
-14.7109	-0.68422
4.50885	-6.96298
3.85481	0.532536
9.32378	8.08983
-2.04028	-6.28316
-4.22061	-12.8559
-1.3002	1.57213
13.6925	3.88596
-4.08331	5.32611
-1.92238	-1.41494
4.83976	3.13357
6.51367	-1.41321
-13.4853	4.63713
12.3411	-6.07904
-0.455248	5.70954
1.53099	0.00683245
-8.69655	4.17373
-4.24409	-0.458161
-3.73071	-10.0807
1.68443	-10.2864
6.94904	2.96082
-9.87116	8.70547
-2.38183	-2.75993
2.58758	-7.59253
-3.01142	3.33049
6.49067	-5.00644
1.96937	-9.32462
4.15494	0.580672
1.45849	-2.85628
9.41431	-7.3138
5.39316	1.97399
-0.750046	7.00519
2.73483	0.660027
-13.0805	-3.30127
7.44622	-1.80745
11.9097	16.4785
-0.951041	5.27407
8.13568	-0.239188
-5.41225	2.4881
4.49905	-2.05502
-1.65764	14.83
-4.49284	-2.28679
-12.8053	21.6303
-7.01313	2.92103
6.2983	-12.6433
-8.23139	8.47194
-2.59993	-7.99165
4.87039	-2.36597
9.81856	-7.37005
9.83531	15.2314
12.0451	-1.43049
1.66187	3.27057
-1.0953	-8.33708
5.11336	3.38456
4.08228	4.67925
2.83886	-2.16386
-1.09682	1.9045
-13.3562	9.93149
6.61204	-12.4038
5.37986	8.80564
-3.27102	0.899232
3.93689	6.87979
6.64	-10.9823
7.34564	-1.76984
3.97906	7.7464
10.6144	3.5986
-3.60453	11.82
-2.80445	-0.704028
3.38095	1.13425
8.5865	1.41017
11.1077	-0.3319
14.312	2.23974
6.92973	-4.72698
1.04889	5.14616
1.17934	1.50663
-1.94175	5.13437
3.10904	7.84576
2.6589	3.02726
-5.66094	12.4683
-4.0603	1.11772
6.14333	-2.21504
-12.787	1.0497
-0.79362	-2.76298
-8.68409	0.365717
-14.7738	-8.91664
8.42715	-4.61867
-5.5354	-13.1139
-6.59804	-9.19207
1.72795	-2.20157
1.81093	-7.81774
1.10566	-4.14829
8.44552	-3.76951
-0.33847	8.17694
3.64143	8.89376
-2.75733	-4.34702
8.24491	-5.9674
-12.1329	10.6103
10.7247	8.37882
5.3502	14.2887
-3.73772	-13.8444
3.26729	-8.46697
-0.780623	-13.0667
1.59724	-8.10437
2.72363	10.8676
-0.0740207	-9.67413
7.43677	10.9528
-5.0644	7.48714
-6.07198	8.28424
6.36547	-5.31972
5.29059	10.0834
-0.296196	-17.385
-10.6503	-8.493
-0.620197	9.00778
-0.826563	11.1254
-0.0763092	-1.71028
-0.449053	-11.0542
-6.64092	-4.68921
-0.115602	8.58018
8.45164	5.11247
4.37134	-7.2451
-4.74215	2.12454
-8.04886	-14.7736
0.1337	5.09603
8.58377	-9.72343
15.0737	-0.924082
4.92867	8.85988
-10.2382	10.0332
2.51944	-8.36369
3.56004	-3.64437
16.7889	-11.7857
5.82207	5.81114
18.1453	9.64671
-9.03756	0.981416
4.02783	-1.56806
-11.4223	1.37365
-1.05366	-5.81667
4.00202	-0.842816
1.90886	4.97426
-3.37084	-2.82477
2.52673	0.399101
-18.425	0.1361
9.71556	-4.3857
-5.91746	-5.7581
16.4049	-10.3635
-3.2738	-16.1616
-0.048973	5.53463
7.35388	-0.913364
4.44085	-0.195256
-0.467442	-6.08798
2.16432	-2.38681
11.3257	-5.16925
0.71533	-2.36328
-10.5659	-2.38198
9.48961	5.72745
0.673078	8.85564
7.24812	-0.3195
-4.77579	17.3964
-4.04115	-14.3803
-2.97752	9.91347
-5.65786	6.02779
2.91326	-1.38243
1.75014	3.65208
-3.71935	-7.16758
-6.98198	2.27699
-1.93369	0.263454
-12.6408	5.89938
-12.9592	-10.1257
-1.86473	11.4494
-2.94569	0.843769
-0.291011	-11.1466
-5.05222	-11.0188
0.718594	1.94307
-11.9058	13.227
-5.34516	2.20016
-1.8835	3.90944
-4.00041	9.7824
-0.676868	0.279195
-2.33807	-0.331991
1.21592	-3.77255
-12.6146	-5.68404
1.43484	7.16381
1.11148	-5.97844
-5.89898	1.32832
6.63918	-10.3528
6.61585	0.738851
9.01668	15.705
-3.97411	5.20512
1.25329	-5.80327
-8.70746	-6.18268
5.92562	4.5693
-4.05035	-0.855281
3.55024	-4.44318
-18.2688	-1.04102
9.17097	-2.07907
-3.2157	-2.44059
-13.5059	-5.20396
-3.70379	-13.9208
-11.8417	-2.1576
-0.348366	8.00578
-4.1674	-5.34896
1.77924	0.947666
-0.198989	1.80524
14.5162	7.75938
0.102142	0.606865
2.51882	1.45641
-10.9796	1.66471
-2.14187	7.33339
9.94885	-2.99863
-12.8213	5.56295
-2.12696	0.799461
0.967968	2.81375
7.22358	-1.7236
7.9383	-1.74255
-1.6577	5.71483
-4.09346	6.20022
-9.30006	-7.29598
-4.98865	-5.04533
7.12582	9.46365
-1.15075	-5.46573
-5.75357	0.0217934
-6.83296	-0.414978
-10.7091	1.41099
-3.69639	3.17447
7.57335	-2.91041
-16.7275	-6.39363
-16.4002	-1.32863
-5.05047	-2.304
-2.15961	4.63671
0.638545	-14.0558
4.79031	7.78882
12.0137	-9.12995
8.7493	1.66736
-4.32744	3.98667
5.19776	1.77033
-8.16389	-5.34654
-3.94373	-5.95683
-0.904558	1.96805
1.43261	-2.70147
0.0773426	-1.92696
3.93118	-7.92715
-3.54367	13.3054
4.37289	-11.5809
-16.5239	10.7358
0.226875	-14.5178
6.87246	-2.28044
11.4745	7.70007
-2.56939	-0.0830484
2.62731	3.31448
6.08043	6.11264
1.11523	3.99296
-15.3732	0.487431
10.4423	3.70879
-7.7716	1.43206
9.15997	8.07016
-17.4074	7.87295
-4.07798	2.71672
-13.4108	2.14888
-0.43875	5.09627
-4.62047	6.49137
4.059	-2.4427
-3.46163	6.53447
5.60136	-12.796
-8.08834	-5.83632
9.47441	-12.8971
16.0258	0.212533
15.6717	-1.19108
-12.7219	5.32806
2.88225	3.78699
10.8994	-8.0427
12.7159	-2.04106
-1.37126	10.3269
4.4989	10.6631
-1.99009	2.25467
-0.870641	3.11099
5.39681	-8.28852
6.68424	-10.6658
0.243125	-5.69987
3.6443	0.0521629
0.244972	-12.3601
-4.23715	13.6186
-11.6816	11.1875
9.49756	-8.69298
-3.74037	-2.29688
-11.2975	-3.13426
-6.33691	5.74884
8.80537	1.57141
1.69682	3.48408
11.779	15.2224
0.423669	2.50814
-0.026252	-4.33829
-0.475897	8.52031
-6.57199	-0.0113629
-5.17395	-4.76325
-6.64703	-2.25843
6.84629	-2.18948
7.02251	-9.19622
-13.7487	8.74181
7.27177	-7.49655
2.15327	7.95604
-1.80169	1.24494
-10.4297	1.39159
5.4794	5.77588
-0.284493	-6.53507
4.15258	-3.45453
-14.7113	-0.59549
8.84065	-18.957
-7.43862	11.9248
8.08926	5.90147
-18.2764	-8.06987
18.2352	6.95652
2.01893	-1.7258
4.32052	-3.04195
-5.31726	9.30411
9.43105	1.36138
-10.3021	13.8526
5.35138	4.80517
-14.8995	4.36217
16.7337	-3.46456
-19.647	6.43736
5.99251	-18.0245
-6.59913	3.70699
8.46308	3.15242
-10.2327	-4.66785
0.67128	-1.1899
-10.3803	0.0196763
7.63981	-3.21505
-16.5151	2.53017
9.34498	-9.36704
-15.0502	14.2879
15.9395	1.92482
-16.1043	5.22845
17.9543	-3.37674
-17.386	17.1041
18.9557	-1.46241
-21.4039	4.46004
12.8696	-14.0059
-19.545	16.8249
26.2544	-10.1728
-35.948	32.2657
26.4391	-13.7513
-31.6895	18.6337
49.6648	-13.8037
-46.034	37.4689
69.3116	-46.2614
