Dangerplot_version	1.0
Number_of_points	1024
Sampling_frequency	1.00000000e+03
Transmitter_frequency	6.38660000e+07
Phi0	0
Phi1	0
PPM_reference	4.70000000e+00
Real_FID	Imag_FID	
7.53971128e+02	-4.43766157e-01
5.70016821e+02	4.20667210e+02
1.98576857e+02	5.79386069e+02
-1.01440261e+02	4.87084354e+02
-2.42953928e+02	3.19509939e+02
-2.98882630e+02	1.76929088e+02
-3.21750960e+02	3.84931022e+01
-2.87819317e+02	-1.10929948e+02
-1.79305718e+02	-2.26693176e+02
-2.82771420e+01	-2.65488145e+02
1.17111113e+02	-2.20233080e+02
2.13971009e+02	-1.00703736e+02
2.18324926e+02	6.01917861e+01
1.11301173e+02	1.86362822e+02
-5.39863869e+01	1.98530464e+02
-1.70134395e+02	9.12783367e+01
-1.68381989e+02	-5.13063364e+01
-8.05850457e+01	-1.32701949e+02
8.31834445e+00	-1.31818798e+02
5.58296233e+01	-1.01169536e+02
8.89920026e+01	-8.20862674e+01
1.40848908e+02	-5.01675000e+01
1.84048559e+02	3.84844575e+01
1.49233435e+02	1.65918729e+02
1.32583845e+01	2.44845686e+02
-1.50752863e+02	2.01101673e+02
-2.33571180e+02	5.48510572e+01
-1.93680232e+02	-9.48079464e+01
-8.23782436e+01	-1.65264821e+02
2.33010753e+01	-1.51446221e+02
8.43931086e+01	-9.56215271e+01
1.02394871e+02	-3.38606856e+01
9.33879673e+01	1.65219259e+01
7.31975729e+01	5.17621624e+01
4.76746626e+01	8.17429282e+01
3.95972185e+00	1.12033579e+02
-7.19110139e+01	1.16648881e+02
-1.53132554e+02	5.46740125e+01
-1.69427002e+02	-6.81111755e+01
-7.97996315e+01	-1.72652599e+02
6.02975758e+01	-1.73406750e+02
1.43192556e+02	-7.47645971e+01
1.24658245e+02	2.98305943e+01
6.14271667e+01	6.68168757e+01
2.60507853e+01	5.65274345e+01
2.07937709e+01	5.91128428e+01
-2.45390988e+00	8.39272036e+01
-6.24040904e+01	8.62314422e+01
-1.20050270e+02	3.33811692e+01
-1.24932742e+02	-5.55262509e+01
-6.49824093e+01	-1.29772276e+02
3.13955346e+01	-1.47633605e+02
1.19134462e+02	-9.81001918e+01
1.54851886e+02	-2.53703098e+00
1.17741172e+02	9.10115274e+01
3.30299074e+01	1.30871211e+02
-4.03836061e+01	1.05335364e+02
-6.60956281e+01	5.71018721e+01
-6.50997503e+01	3.11887327e+01
-7.74607298e+01	1.86514526e+01
-9.89860238e+01	-2.09537926e+01
-8.20143480e+01	-8.89830015e+01
-4.37063413e+00	-1.30190366e+02
8.56822055e+01	-9.47818262e+01
1.14015808e+02	-2.79340900e+00
6.24580920e+01	6.99766470e+01
-1.41247731e+01	7.09621133e+01
-5.12250320e+01	1.96647682e+01
-3.52202049e+01	-2.75930684e+01
2.01175439e+00	-3.95627854e+01
2.71194324e+01	-2.44205824e+01
3.17031105e+01	-4.66347287e+00
2.80911155e+01	5.13224421e+00
3.22016439e+01	8.70717341e+00
4.49285372e+01	2.60124410e+01
4.21139139e+01	6.94738055e+01
-8.18995882e+00	1.15573068e+02
-1.02843253e+02	1.10646267e+02
-1.81228407e+02	2.12337262e+01
-1.68565317e+02	-1.15427391e+02
-5.41291631e+01	-2.06599077e+02
8.76067282e+01	-1.88783078e+02
1.68070462e+02	-8.92341022e+01
1.66114000e+02	1.38551658e+01
1.24627687e+02	7.74631511e+01
8.06436815e+01	1.15560850e+02
2.70721252e+01	1.47593831e+02
-5.37558172e+01	1.57504124e+02
-1.43683029e+02	1.12670126e+02
-1.93363040e+02	9.75499605e+00
-1.66251938e+02	-1.09881301e+02
-6.78560561e+01	-1.88673885e+02
6.00658087e+01	-1.88962260e+02
1.60091814e+02	-1.08485168e+02
1.83226652e+02	1.61836486e+01
1.20053846e+02	1.19235004e+02
1.64485149e+01	1.47716082e+02
-6.10712944e+01	1.08349442e+02
-8.77406104e+01	5.46265711e+01
-9.48508093e+01	1.94471859e+01
-1.11620605e+02	-1.95814806e+01
-1.11231864e+02	-9.37674242e+01
-4.09412086e+01	-1.76398869e+02
9.57081047e+01	-1.89378035e+02
2.14686590e+02	-8.87948705e+01
2.27154857e+02	7.31250239e+01
1.27460782e+02	1.92655025e+02
-9.86679711e+00	2.12296963e+02
-1.09845457e+02	1.54936200e+02
-1.52786165e+02	7.38345031e+01
-1.57192395e+02	-1.32194402e+00
-1.37260604e+02	-6.75081595e+01
-9.19362395e+01	-1.22898693e+02
-2.17561484e+01	-1.54459800e+02
6.01799933e+01	-1.46742820e+02
1.31100684e+02	-9.34758500e+01
1.62823723e+02	-2.86136525e+00
1.30565181e+02	9.57418172e+01
3.68458960e+01	1.52390851e+02
-7.06061127e+01	1.28063103e+02
-1.25039429e+02	3.82928157e+01
-9.97334779e+01	-5.10268892e+01
-3.27746070e+01	-8.54187787e+01
1.82742385e+01	-7.02359470e+01
3.82721102e+01	-4.78862388e+01
5.59712265e+01	-3.68026263e+01
8.78807219e+01	-1.13693357e+01
1.03410038e+02	5.25506329e+01
5.97007910e+01	1.28559653e+02
-3.94219593e+01	1.55836916e+02
-1.36182111e+02	1.02511866e+02
-1.70839483e+02	-1.89656025e+00
-1.31220038e+02	-9.68885958e+01
-5.17427517e+01	-1.41251794e+02
2.41027379e+01	-1.33899217e+02
7.47436671e+01	-9.88026165e+01
1.03312873e+02	-5.73199287e+01
1.20510227e+02	-1.26071792e+01
1.25356776e+02	4.40005321e+01
9.96097656e+01	1.12147944e+02
2.57158282e+01	1.65844360e+02
-8.24136063e+01	1.62597082e+02
-1.71075782e+02	8.19207369e+01
-1.83331817e+02	-4.21122829e+01
-1.10641865e+02	-1.38693333e+02
-3.10624656e+00	-1.58854906e+02
7.60263904e+01	-1.12832478e+02
1.02900037e+02	-4.81425216e+01
9.78251549e+01	1.37381329e+00
8.54886355e+01	3.79237486e+01
6.40690194e+01	7.56100594e+01
1.78828373e+01	1.07502662e+02
-5.01964155e+01	1.06968350e+02
-1.09629893e+02	5.83152285e+01
-1.24488826e+02	-2.19747549e+01
-8.21186464e+01	-9.34669697e+01
-4.46094619e+00	-1.18267061e+02
6.51801980e+01	-8.64010466e+01
9.16311693e+01	-2.31480102e+01
7.22365526e+01	3.05930555e+01
3.46133621e+01	5.14224290e+01
7.40865106e+00	4.89265159e+01
-7.84635042e+00	4.63703424e+01
-3.07531481e+01	4.68556490e+01
-6.55998195e+01	2.70573000e+01
-8.19324857e+01	-2.75469166e+01
-4.54918437e+01	-8.86948080e+01
3.40731279e+01	-1.03368356e+02
1.00881926e+02	-4.97215688e+01
1.04073423e+02	3.53393694e+01
4.60467738e+01	8.98805289e+01
-2.36548085e+01	8.35213169e+01
-5.79035374e+01	3.76828424e+01
-5.00078066e+01	-4.55414804e+00
-2.60190507e+01	-1.99733235e+01
-1.11878339e+01	-1.63543653e+01
-9.55023151e+00	-1.31871643e+01
-8.29817153e+00	-1.97764376e+01
5.55681098e+00	-2.77901952e+01
2.90742988e+01	-1.94745481e+01
4.02318908e+01	1.22812067e+01
1.72366892e+01	4.78933493e+01
-3.33361167e+01	5.20435301e+01
-7.26851247e+01	9.17113481e+00
-6.30419792e+01	-5.36281757e+01
-6.97384667e+00	-8.72938346e+01
5.24831168e+01	-6.80667405e+01
7.53776964e+01	-1.91640612e+01
6.28343769e+01	1.92651683e+01
4.45327526e+01	3.47882357e+01
3.54608276e+01	4.65909687e+01
1.98911238e+01	6.87527502e+01
-2.03882151e+01	8.51981339e+01
-7.46069529e+01	6.75110598e+01
-1.07479601e+02	1.01382602e+01
-9.18230130e+01	-5.85849761e+01
-3.34182858e+01	-9.84471463e+01
3.33414586e+01	-8.80597899e+01
7.06974365e+01	-3.86702578e+01
6.26204523e+01	1.51645767e+01
2.46465627e+01	4.00128845e+01
-8.65773861e+00	2.86156107e+01
-1.40711360e+01	4.93944625e+00
-1.92926927e+00	-1.96714524e+00
-1.34468840e+00	7.97974317e+00
-2.00517200e+01	6.30818373e+00
-2.93924491e+01	-2.39264082e+01
7.71206336e-01	-5.77430148e+01
5.82484698e+01	-5.11157918e+01
9.34018753e+01	6.55155859e+00
7.07142392e+01	7.52747256e+01
5.76881009e+00	1.04818534e+02
-5.48366918e+01	8.31031935e+01
-8.17398446e+01	3.75918501e+01
-8.10441566e+01	-2.42652330e+00
-7.08446413e+01	-3.15093219e+01
-5.57163404e+01	-5.79880360e+01
-2.82882444e+01	-8.27137481e+01
1.50447996e+01	-9.46515307e+01
6.62883898e+01	-8.05726324e+01
1.06889488e+02	-3.43384739e+01
1.12858268e+02	3.51944622e+01
6.93821865e+01	9.83876532e+01
-8.58591746e+00	1.16704221e+02
-7.56393878e+01	7.57806185e+01
-9.08060293e+01	6.34639379e+00
-5.73623368e+01	-4.08252297e+01
-1.77901651e+01	-4.53914012e+01
-3.57834980e+00	-3.35038355e+01
-9.13805695e-01	-3.73680943e+01
2.25054058e+01	-4.94876189e+01
6.52290186e+01	-3.28843279e+01
8.55085668e+01	2.52024145e+01
4.99427952e+01	8.79702545e+01
-2.54676128e+01	1.05116326e+02
-9.04310562e+01	6.31865931e+01
-1.07943391e+02	-7.45541250e+00
-7.92204666e+01	-6.63079739e+01
-2.90141213e+01	-9.31561930e+01
2.01358970e+01	-9.03109816e+01
5.77445561e+01	-6.84806786e+01
8.17712676e+01	-3.63113857e+01
9.32486187e+01	2.54022580e+00
8.97253099e+01	4.83208603e+01
6.05996697e+01	9.67136645e+01
-2.29361090e+00	1.27080725e+02
-8.24233649e+01	1.09532529e+02
-1.35970380e+02	3.68266186e+01
-1.25624033e+02	-5.49999702e+01
-5.84761833e+01	-1.11331874e+02
1.80918250e+01	-1.07133759e+02
6.13506845e+01	-6.45929867e+01
6.82398782e+01	-2.24579587e+01
6.26861745e+01	4.29801303e+00
5.74707820e+01	2.80535291e+01
4.11661905e+01	5.76980202e+01
1.62697980e+00	7.83980808e+01
-5.00816240e+01	6.71781643e+01
-8.45024707e+01	2.01108139e+01
-7.78012687e+01	-4.06379826e+01
-3.05574088e+01	-8.13011649e+01
3.09382150e+01	-7.82135220e+01
7.08343316e+01	-3.48269975e+01
6.87074267e+01	1.88593293e+01
3.50716236e+01	4.96117079e+01
4.81254333e-01	4.86426089e+01
-1.54217088e+01	3.50802151e+01
-2.21014006e+01	2.93021666e+01
-3.91187123e+01	2.57273092e+01
-6.18758652e+01	1.30758429e+00
-5.98704638e+01	-4.67178681e+01
-1.49283713e+01	-8.48204349e+01
4.94074117e+01	-7.60886750e+01
8.70585685e+01	-2.20722416e+01
7.44506935e+01	3.84122052e+01
2.90169672e+01	6.80132445e+01
-1.42920273e+01	6.04506991e+01
-3.55251375e+01	3.51690108e+01
-3.77356596e+01	1.28388684e+01
-3.34085326e+01	1.67354794e-01
-3.13348263e+01	-7.78564715e+00
-3.15461488e+01	-1.92447085e+01
-2.46896529e+01	-3.77270658e+01
-8.00818160e-02	-5.36705989e+01
3.71033847e+01	-4.69830672e+01
6.04237242e+01	-9.89949257e+00
4.59930518e+01	3.40469700e+01
3.37973000e+00	4.79832066e+01
-2.83056946e+01	2.25208153e+01
-2.20758894e+01	-1.16551559e+01
6.55789693e+00	-1.84676920e+01
2.03268037e+01	2.69474517e+00
6.34778436e+00	2.03516740e+01
-1.19672182e+01	1.33804672e+01
-9.88593697e+00	-3.56897935e+00
6.29326188e+00	-3.71448502e+00
1.03566159e+01	1.49284160e+01
-9.02718521e+00	2.86536650e+01
-3.54653006e+01	1.80640325e+01
-4.44987025e+01	-1.20851266e+01
-2.73667042e+01	-4.03965603e+01
4.69517623e+00	-4.78537497e+01
3.13052237e+01	-3.05834567e+01
3.60978469e+01	-1.67419577e+00
1.82839909e+01	1.69948560e+01
-3.18065337e+00	1.14530908e+01
-4.29999033e+00	-8.72412535e+00
1.71827553e+01	-1.56784756e+01
3.45242361e+01	6.10007221e+00
2.08133755e+01	3.67262925e+01
-1.64253103e+01	4.03434087e+01
-3.95796636e+01	8.44471357e+00
-2.32976681e+01	-2.74986941e+01
1.56965030e+01	-3.08586602e+01
3.77391604e+01	5.75526791e-01
2.33393948e+01	3.54112688e+01
-1.12854119e+01	4.40473513e+01
-3.76156711e+01	2.52381075e+01
-4.25966704e+01	-1.74896653e+00
-3.23406733e+01	-2.08922798e+01
-1.84745677e+01	-2.95528391e+01
-6.89886379e+00	-3.26730789e+01
4.13914572e+00	-3.51014136e+01
2.00270770e+01	-3.62174382e+01
4.19331184e+01	-2.73924685e+01
5.90798944e+01	2.70620102e-01
5.26852049e+01	4.02719136e+01
1.58984327e+01	6.75866888e+01
-3.09466199e+01	5.98807302e+01
-5.51758206e+01	2.29287386e+01
-4.55804240e+01	-1.23259218e+01
-2.33975324e+01	-2.29143746e+01
-1.44198468e+01	-1.82011169e+01
-1.72305795e+01	-2.30881060e+01
-8.15924500e+00	-4.15274020e+01
2.41030001e+01	-4.92020649e+01
5.90026591e+01	-2.42474854e+01
6.42335906e+01	2.43099423e+01
3.00167544e+01	6.32427300e+01
-2.18814940e+01	6.55085818e+01
-5.88910907e+01	3.12355803e+01
-6.17431352e+01	-1.65596938e+01
-3.32189444e+01	-5.08032356e+01
7.21006931e+00	-5.64130367e+01
3.68725852e+01	-3.66645698e+01
4.52403083e+01	-8.71441479e+00
3.94141386e+01	1.16870526e+01
3.21613786e+01	2.45291295e+01
2.40027966e+01	4.02501507e+01
2.22627642e+00	5.84506656e+01
-3.80489309e+01	5.99359455e+01
-7.66691302e+01	2.73026495e+01
-8.22110427e+01	-2.93926886e+01
-4.50119215e+01	-7.52949584e+01
1.06014713e+01	-8.22217225e+01
5.03308350e+01	-5.39995323e+01
6.09505836e+01	-1.72407467e+01
5.42918216e+01	8.70258226e+00
4.57110119e+01	2.58713874e+01
3.56626919e+01	4.43493289e+01
1.35169688e+01	6.35044962e+01
-2.46655427e+01	6.91780612e+01
-6.54077825e+01	4.67891254e+01
-8.44752001e+01	-2.35427109e+00
-6.49327240e+01	-5.55982445e+01
-1.31220886e+01	-8.18051152e+01
4.11425748e+01	-6.49595752e+01
6.53868216e+01	-1.86158253e+01
5.12250930e+01	2.42366095e+01
1.96398041e+01	3.97865883e+01
-2.82267244e+00	3.26667745e+01
-1.04614105e+01	2.39138341e+01
-1.73238616e+01	2.23752063e+01
-3.25500240e+01	1.61052627e+01
-4.47289503e+01	-7.05740325e+00
-3.49367625e+01	-3.89178501e+01
-1.17657396e+00	-5.62412224e+01
3.63141241e+01	-4.39671741e+01
5.38078431e+01	-9.67865411e+00
4.38694532e+01	2.43573205e+01
1.74779242e+01	4.03687758e+01
-7.64422500e+00	3.59672052e+01
-1.97398355e+01	2.13327023e+01
-1.98005348e+01	9.72033166e+00
-1.90210225e+01	6.56341704e+00
-2.61692242e+01	3.49266709e+00
-3.47430920e+01	-1.25253971e+01
-2.65966376e+01	-3.96291507e+01
6.30297788e+00	-5.56901085e+01
4.56364198e+01	-3.96150284e+01
6.00081315e+01	2.66977954e+00
3.76225616e+01	3.96191201e+01
1.03309722e-01	4.50327871e+01
-2.11964943e+01	2.44337786e+01
-1.83112821e+01	5.13829997e+00
-9.53432970e+00	2.74375951e+00
-1.21225666e+01	6.76884573e+00
-2.15755051e+01	2.14147847e-01
-2.09956339e+01	-1.69175562e+01
-4.20129237e+00	-2.88509044e+01
1.68570184e+01	-2.31989294e+01
2.57338634e+01	-3.71833547e+00
1.70906584e+01	1.45557896e+01
-1.06602390e+00	1.91093430e+01
-1.53153729e+01	8.42396461e+00
-1.56549343e+01	-8.81678296e+00
-2.04704247e+00	-1.93892939e+01
1.40415364e+01	-1.46632800e+01
1.84995618e+01	2.08013090e-01
9.45753755e+00	9.41058778e+00
8.52934755e-01	4.45558618e+00
6.23875262e+00	-3.90719515e+00
2.01634639e+01	2.13685996e+00
2.17636593e+01	2.41796219e+01
-5.10022805e-01	4.19601169e+01
-3.22600801e+01	3.42482817e+01
-4.65230227e+01	3.51293229e+00
-3.25412306e+01	-2.52001821e+01
-6.01815734e+00	-3.09626409e+01
9.61491932e+00	-1.71971690e+01
6.95481881e+00	-3.31669567e+00
-2.38154471e+00	-2.27122269e+00
-4.03394783e+00	-1.03010550e+01
4.27234021e+00	-1.50931226e+01
1.33053281e+01	-9.96725932e+00
1.40682214e+01	-6.18021430e-03
7.27219892e+00	4.60494023e+00
2.18356552e+00	1.24080926e-01
6.93959416e+00	-6.32972670e+00
1.90266079e+01	-3.23583489e+00
2.51948298e+01	1.34711103e+01
1.35124528e+01	3.32441853e+01
-1.26039785e+01	3.81220439e+01
-3.46683038e+01	2.08657039e+01
-3.64176543e+01	-5.85283647e+00
-2.01517732e+01	-2.19105938e+01
-3.38043569e+00	-2.01623185e+01
7.50782697e-01	-1.17616615e+01
-2.96608778e+00	-1.15229833e+01
5.24627946e-01	-2.01187203e+01
1.69883657e+01	-2.30175985e+01
3.42627769e+01	-7.78002817e+00
3.40559612e+01	2.00559199e+01
1.08110780e+01	4.04100708e+01
-2.16053055e+01	3.66377707e+01
-4.08224857e+01	9.86935935e+00
-3.40545987e+01	-2.16507907e+01
-7.94622217e+00	-3.69521607e+01
1.79594727e+01	-2.90101597e+01
2.81800892e+01	-8.75262255e+00
2.30675749e+01	7.45930498e+00
1.44678671e+01	1.35195554e+01
1.04142453e+01	1.63177933e+01
6.01216622e+00	2.36599542e+01
-8.46024018e+00	3.13512764e+01
-3.15274320e+01	2.56467357e+01
-4.69779535e+01	3.19075465e-01
-3.90978972e+01	-3.20476438e+01
-9.81291674e+00	-4.98140505e+01
2.19570076e+01	-4.24925581e+01
3.78867128e+01	-1.89729773e+01
3.54449077e+01	3.32925776e+00
2.55609893e+01	1.51480649e+01
1.78624772e+01	2.06386917e+01
1.10266091e+01	2.75533275e+01
-2.41638097e+00	3.51087752e+01
-2.41207319e+01	3.35469763e+01
-4.41510321e+01	1.49638205e+01
-4.74269031e+01	-1.62732437e+01
-2.71882757e+01	-4.34614460e+01
6.65448460e+00	-4.92882881e+01
3.34925066e+01	-3.06307291e+01
3.85913110e+01	-2.11285803e+00
2.50061908e+01	1.68732168e+01
8.78482714e+00	1.92900659e+01
1.98673201e+00	1.41959163e+01
1.45694095e+00	1.38005050e+01
-4.25605268e+00	1.84282697e+01
-1.82435766e+01	1.66002149e+01
-2.91596699e+01	4.08558921e-01
-2.31996589e+01	-2.22950686e+01
-6.16515169e-02	-3.38043691e+01
2.48807531e+01	-2.36965729e+01
3.39613700e+01	1.35815640e+00
2.22767228e+01	2.38168285e+01
3.62135650e-01	3.02035662e+01
-1.65362842e+01	2.09290562e+01
-2.13403846e+01	7.01626902e+00
-1.86805941e+01	-1.87716386e+00
-1.71943268e+01	-6.13106444e+00
-1.84539211e+01	-1.34044390e+01
-1.40009568e+01	-2.72024070e+01
4.54807571e+00	-3.87309020e+01
3.20764044e+01	-3.31131308e+01
5.00686732e+01	-6.13834017e+00
4.33517790e+01	2.73579461e+01
1.59590959e+01	4.55765365e+01
-1.23213237e+01	4.02199092e+01
-2.55482097e+01	2.24706690e+01
-2.54164662e+01	8.47800928e+00
-2.41887893e+01	2.02368178e+00
-2.69795719e+01	-5.68968990e+00
-2.58258330e+01	-2.07561868e+01
-1.14814475e+01	-3.60825312e+01
1.33101626e+01	-3.81964942e+01
3.44967491e+01	-2.16704042e+01
3.87200653e+01	5.17076514e+00
2.37837186e+01	2.68196071e+01
-2.94535529e-01	3.15936009e+01
-1.85701734e+01	1.90837012e+01
-2.13076285e+01	4.23563423e-02
-1.07396686e+01	-1.16705457e+01
1.06474513e+00	-1.03464419e+01
3.73230903e+00	-3.21738374e+00
-3.87524878e-01	-1.98790819e+00
6.01052749e-01	-8.12639306e+00
1.18714688e+01	-9.71567473e+00
2.23186552e+01	3.46644307e+00
1.60379734e+01	2.41809607e+01
-7.56183931e+00	3.27152652e+01
-3.01830843e+01	1.85453135e+01
-3.33056043e+01	-7.27948181e+00
-1.73782755e+01	-2.40010113e+01
7.67668041e-01	-2.28009067e+01
7.67632779e+00	-1.30401443e+01
5.77487831e+00	-8.10479079e+00
5.99331426e+00	-1.00894822e+01
1.29747413e+01	-1.05449521e+01
2.07126823e+01	-2.64641016e+00
2.04047665e+01	1.10175565e+01
9.60393440e+00	2.13902798e+01
-5.55097422e+00	2.10181986e+01
-1.50366624e+01	1.01571408e+01
-1.26558063e+01	-2.67596545e+00
-1.85428804e+00	-6.76387310e+00
5.74074602e+00	1.15404080e+00
5.55960645e-01	1.21407662e+01
-1.41350491e+01	1.24453820e+01
-2.36731682e+01	-1.97007601e+00
-1.69620096e+01	-1.96153122e+01
1.05921995e+00	-2.49177183e+01
1.46173345e+01	-1.49188031e+01
1.43797023e+01	-1.61822267e+00
6.49188268e+00	2.49510362e+00
3.53315808e+00	-2.01860455e+00
9.34764381e+00	-4.26148450e+00
1.55722870e+01	2.99918342e+00
1.22898563e+01	1.50144083e+01
-6.77920921e-01	2.06804060e+01
-1.37598432e+01	1.43086580e+01
-1.72332007e+01	9.37747609e-01
-1.00229709e+01	-8.89054889e+00
8.36582460e-03	-8.83729167e+00
3.79443322e+00	-2.08181309e+00
-2.49299308e-01	2.34833580e+00
-4.88015695e+00	-8.24826542e-01
-2.26614034e+00	-6.98560873e+00
6.16920152e+00	-6.53730539e+00
1.00310073e+01	3.15447477e+00
1.84151041e+00	1.26561512e+01
-1.26400530e+01	9.87185568e+00
-1.88255379e+01	-5.79914510e+00
-8.58409062e+00	-2.12304332e+01
1.07828396e+01	-2.24490208e+01
2.38263464e+01	-8.33624677e+00
2.18592770e+01	9.40966848e+00
9.46823393e+00	1.85079063e+01
-2.36644741e+00	1.65457235e+01
-7.17130994e+00	1.01570781e+01
-7.04220133e+00	6.53591299e+00
-8.23752450e+00	6.63351622e+00
-1.38256059e+01	5.14084063e+00
-1.95661956e+01	-3.53033068e+00
-1.68987666e+01	-1.79521853e+01
-1.87780819e+00	-2.81847088e+01
1.81648195e+01	-2.39084376e+01
2.90487477e+01	-5.64676237e+00
2.30590456e+01	1.36650628e+01
7.16515795e+00	2.06567395e+01
-4.31298068e+00	1.48403440e+01
-5.28432406e+00	7.68661649e+00
-3.36838161e+00	7.99681886e+00
-8.51373128e+00	1.12949790e+01
-1.91341634e+01	6.40488103e+00
-2.31224947e+01	-9.34363980e+00
-1.20210824e+01	-2.52342045e+01
8.87906836e+00	-2.78168130e+01
2.52344605e+01	-1.41098329e+01
2.66297486e+01	6.29075421e+00
1.43643672e+01	2.03086774e+01
-1.65587695e+00	2.16360317e+01
-1.18857506e+01	1.36634105e+01
-1.38404108e+01	4.52875988e+00
-1.21117118e+01	-5.73199337e-01
-1.21786083e+01	-3.57524388e+00
-1.32264871e+01	-1.01562374e+01
-7.94899083e+00	-2.09772760e+01
8.25566385e+00	-2.72334859e+01
2.82513027e+01	-1.82365989e+01
3.67095829e+01	5.45988929e+00
2.48182918e+01	2.92125000e+01
1.03900760e-01	3.70097088e+01
-2.04586133e+01	2.63431207e+01
-2.66612560e+01	8.80782647e+00
-2.24866833e+01	-3.33097140e+00
-1.77610099e+01	-8.58670072e+00
-1.57365889e+01	-1.36309003e+01
-1.10978625e+01	-2.21032579e+01
1.46832139e+00	-2.90329452e+01
1.93650239e+01	-2.60182811e+01
3.27467032e+01	-1.01059723e+01
3.21084074e+01	1.21583017e+01
1.62366798e+01	2.82792398e+01
-5.54236805e+00	2.86374457e+01
-1.94490887e+01	1.44875377e+01
-1.81741487e+01	-2.31407904e+00
-7.20914245e+00	-9.51084114e+00
9.53227082e-01	-5.70744896e+00
1.37588170e-01	-4.94872524e-01
-3.46561392e+00	-2.31138695e+00
-3.24968712e-01	-7.89685616e+00
9.11893817e+00	-6.70001016e+00
1.38498491e+01	4.75573929e+00
5.56905436e+00	1.68575797e+01
-1.05903593e+01	1.71488298e+01
-2.09925967e+01	4.14897963e+00
-1.77085421e+01	-1.15214523e+01
-5.33236434e+00	-1.86285185e+01
5.76854200e+00	-1.54076108e+01
1.00326803e+01	-8.35692835e+00
9.71444772e+00	-3.74522255e+00
9.84617466e+00	-2.01715409e+00
1.22596027e+01	7.05064166e-01
1.38400285e+01	7.51708472e+00
9.47527561e+00	1.67627234e+01
-2.52811318e+00	2.19500272e+01
-1.67644394e+01	1.66940251e+01
-2.34134240e+01	1.83002829e+00
-1.69962824e+01	-1.29131919e+01
-2.99374538e+00	-1.69590854e+01
6.41351895e+00	-9.56712117e+00
4.75489614e+00	-8.44481369e-01
-1.93998364e+00	-6.97774892e-01
-2.52870548e+00	-7.78696084e+00
6.02122883e+00	-1.14552211e+01
1.51113030e+01	-4.53855012e+00
1.44783152e+01	8.10506909e+00
3.71764085e+00	1.50469082e+01
-7.49772929e+00	1.06272432e+01
-9.79784047e+00	2.07051812e-01
-3.14991863e+00	-6.11735819e+00
4.31627294e+00	-3.53353381e+00
5.00574470e+00	3.66816600e+00
-1.08755102e+00	7.21406260e+00
-7.08310132e+00	3.28749519e+00
-6.44699026e+00	-3.89441773e+00
1.77709506e-01	-6.64535778e+00
5.49216997e+00	-1.98173822e+00
3.38056720e+00	4.87906544e+00
-4.10437397e+00	5.86432775e+00
-8.61559617e+00	-8.92334163e-01
-4.68101408e+00	-8.52272050e+00
4.00737694e+00	-8.95815507e+00
8.60274294e+00	-1.99070947e+00
4.99519142e+00	4.70269435e+00
-1.83683660e+00	4.26821015e+00
-3.71642101e+00	-1.99854168e+00
1.82289057e+00	-6.40228080e+00
9.26659218e+00	-3.09187586e+00
1.08857311e+01	6.09564380e+00
4.08860533e+00	1.36142753e+01
-6.32828967e+00	1.32458280e+01
-1.25355056e+01	5.47570638e+00
-1.06727568e+01	-3.07049113e+00
-4.34872057e+00	-5.67709386e+00
-1.08175338e+00	-2.18278073e+00
-4.35394693e+00	5.63409155e-01
-9.18644091e+00	-3.77065280e+00
-7.04735655e+00	-1.30342718e+01
4.12113727e+00	-1.78028520e+01
1.62927496e+01	-1.14213488e+01
1.93347423e+01	2.24371691e+00
1.17190638e+01	1.25897078e+01
1.40738392e+00	1.35046752e+01
-3.68895510e+00	8.81755381e+00
-3.84595647e+00	5.92154892e+00
-4.98371943e+00	6.37335275e+00
-9.74605219e+00	5.16408190e+00
-1.37261957e+01	-1.68070541e+00
-1.08886530e+01	-1.13252960e+01
-8.50831168e-01	-1.65487077e+01
1.02643269e+01	-1.28229311e+01
1.52625815e+01	-2.43306392e+00
1.15511569e+01	7.70081635e+00
2.60903112e+00	1.15505105e+01
-5.00439929e+00	8.10969057e+00
-6.76394523e+00	1.65600817e+00
-3.73412589e+00	-2.02611654e+00
-1.17153047e+00	-1.14373687e+00
-2.60551243e+00	2.06640107e-01
-5.22087039e+00	-2.94405087e+00
-2.58747708e+00	-9.38292953e+00
7.07216717e+00	-1.14925901e+01
1.66694515e+01	-3.41167816e+00
1.63627025e+01	1.12070008e+01
4.04381152e+00	2.12276449e+01
-1.17585303e+01	1.86017228e+01
-2.00499767e+01	6.05437883e+00
-1.74509883e+01	-6.56364433e+00
-9.50993545e+00	-1.24147791e+01
-3.15796452e+00	-1.26991146e+01
3.61066038e-01	-1.24516902e+01
4.77185820e+00	-1.34740871e+01
1.24281868e+01	-1.22773693e+01
2.00786415e+01	-4.59271906e+00
2.11847784e+01	8.69326312e+00
1.22417526e+01	2.06063710e+01
-3.03179451e+00	2.33965593e+01
-1.57332047e+01	1.51457502e+01
-1.87284948e+01	1.70262970e+00
-1.24890688e+01	-8.00556658e+00
-4.10836392e+00	-9.57417306e+00
-1.19491526e-01	-6.41091416e+00
-3.79341118e-01	-4.94732475e+00
4.67585340e-01	-6.97244351e+00
5.68473455e+00	-7.90871945e+00
1.17196774e+01	-2.79380280e+00
1.16595396e+01	7.05357162e+00
3.09997352e+00	1.42009787e+01
-8.44834902e+00	1.22020793e+01
-1.44273550e+01	2.16039495e+00
-1.10589879e+01	-8.31875143e+00
-2.12750831e+00	-1.23535799e+01
5.37753214e+00	-9.33457277e+00
7.74320732e+00	-3.92387307e+00
6.87115229e+00	-6.51226241e-01
6.82879817e+00	4.18900262e-01
8.58580918e+00	2.91386498e+00
8.52512576e+00	9.01242482e+00
2.48270956e+00	1.55480066e+01
-8.71333711e+00	1.61543316e+01
-1.82832370e+01	7.68008572e+00
-1.90076420e+01	-5.68413270e+00
-1.02109902e+01	-1.52082474e+01
1.20637514e+00	-1.53618815e+01
7.34237079e+00	-8.82689450e+00
6.70639340e+00	-3.07787344e+00
4.52993350e+00	-2.18794503e+00
5.95824191e+00	-3.15464723e+00
9.94437849e+00	-4.16289686e-01
1.05487548e+01	7.06313276e+00
3.95379834e+00	1.39102125e+01
-6.68079321e+00	1.35851199e+01
-1.37744832e+01	5.22945268e+00
-1.24125592e+01	-5.18805448e+00
-4.61728117e+00	-1.04846544e+01
3.04652683e+00	-8.48651034e+00
5.62098374e+00	-2.96175734e+00
3.63072205e+00	7.21242312e-01
1.34847808e+00	6.89529306e-01
1.68596471e+00	-3.60986874e-01
3.19316486e+00	9.38300681e-01
2.24924970e+00	4.18759045e+00
-2.15236558e+00	5.46359359e+00
-6.48925201e+00	1.95580024e+00
-6.08301196e+00	-4.30955586e+00
-3.43662492e-01	-7.85739478e+00
5.97324628e+00	-5.17579160e+00
7.30813405e+00	1.37253259e+00
2.95575611e+00	5.71838267e+00
-2.28473671e+00	4.34275041e+00
-3.17415380e+00	-2.30413771e-01
5.35021538e-01	-2.35186258e+00
3.90120596e+00	7.47593704e-01
2.03950902e+00	5.92974275e+00
-4.51277329e+00	7.11835650e+00
-9.87757189e+00	1.60626035e+00
-8.51034586e+00	-6.66649940e+00
-8.99155197e-01	-1.06167092e+01
6.53207458e+00	-6.95778336e+00
7.56858495e+00	4.78249358e-01
2.42354332e+00	4.49613510e+00
-2.54540124e+00	1.83491820e+00
-1.64945064e+00	-3.46336789e+00
4.03572210e+00	-4.54070676e+00
8.00337859e+00	6.68927974e-01
5.51103171e+00	7.31222853e+00
-1.43955429e+00	9.13440349e+00
-6.66328166e+00	5.03216746e+00
-6.56869383e+00	-4.80666409e-01
-3.35094834e+00	-2.71731210e+00
-1.51650330e+00	-1.67664775e+00
-2.48644904e+00	-1.07745506e+00
-3.48237503e+00	-3.35436525e+00
-1.22008140e+00	-6.73402660e+00
4.15837155e+00	-7.25212652e+00
8.85099445e+00	-2.91114810e+00
8.73705709e+00	4.11600651e+00
3.16444094e+00	8.89902519e+00
-4.05237009e+00	7.73726973e+00
-7.48000289e+00	1.62132808e+00
-4.77755070e+00	-4.20673472e+00
8.57147265e-01	-4.91702908e+00
3.56789190e+00	-9.02778104e-01
1.02263254e+00	2.45270811e+00
-2.72981652e+00	6.99838873e-01
-1.75898253e+00	-4.13250183e+00
4.42447874e+00	-5.29756483e+00
9.42172349e+00	7.82005416e-01
6.68526717e+00	9.63899738e+00
-2.99891612e+00	1.29828945e+01
-1.19299146e+01	7.32317912e+00
-1.33337366e+01	-2.71197423e+00
-7.63563827e+00	-9.60130201e+00
-5.99899243e-01	-1.02746563e+01
3.36871452e+00	-7.57186034e+00
4.75982407e+00	-5.43173206e+00
6.44898921e+00	-4.35144076e+00
9.30119032e+00	-1.88875704e+00
1.09068424e+01	3.57290776e+00
8.15974558e+00	1.03314705e+01
6.55097451e-01	1.42750442e+01
-8.23224584e+00	1.21341055e+01
-1.34465576e+01	4.45912114e+00
-1.20507542e+01	-4.22267976e+00
-5.82527129e+00	-8.72846590e+00
3.87770851e-02	-7.57595957e+00
1.75192367e+00	-4.20009105e+00
6.08799103e-01	-3.17981411e+00
1.10973614e+00	-5.01939287e+00
5.21096713e+00	-5.53956649e+00
9.39385201e+00	-1.10432608e+00
8.33785922e+00	6.32744409e+00
1.21757715e+00	1.05530238e+01
-6.68530941e+00	7.57725172e+00
-9.10745866e+00	-1.02566738e-01
-4.96606225e+00	-6.05681992e+00
1.14594132e+00	-6.30463894e+00
4.12845643e+00	-2.57567721e+00
3.18843153e+00	5.39488899e-01
1.53798956e+00	7.75230755e-01
2.07110385e+00	7.34795942e-02
3.89194370e+00	1.69788531e+00
3.25467270e+00	5.97847915e+00
-2.07388939e+00	9.14879660e+00
-9.54857581e+00	6.72682451e+00
-1.33247262e+01	-1.62701330e+00
-9.48842811e+00	-1.08044791e+01
-5.43701762e-02	-1.43517347e+01
8.49200611e+00	-1.02323842e+01
1.10218190e+01	-2.47667933e+00
8.12644507e+00	3.00909133e+00
4.52492380e+00	4.10041952e+00
3.52483430e+00	3.63636365e+00
3.76875203e+00	5.18599391e+00
1.55800630e+00	8.48542380e+00
-4.26425247e+00	9.63976014e+00
-1.03602111e+01	5.54265306e+00
-1.18721619e+01	-2.43387447e+00
-7.13374422e+00	-9.22596084e+00
6.20224507e-01	-1.04611685e+01
6.09516016e+00	-6.21513277e+00
6.51375698e+00	-6.32076581e-01
3.65067436e+00	2.13031574e+00
1.48981013e+00	1.64654463e+00
1.85187827e+00	9.72665521e-01
2.56388516e+00	2.67297447e+00
3.48314550e-01	5.39334647e+00
-4.64399622e+00	5.06914604e+00
-8.04838336e+00	-1.51274386e-01
-5.67790703e+00	-6.87759785e+00
1.58582338e+00	-9.28286185e+00
8.05453397e+00	-4.98914098e+00
8.66066101e+00	2.41890111e+00
3.76017527e+00	6.96608330e+00
-1.71035283e+00	6.02674343e+00
-3.46568153e+00	2.26074553e+00
-1.78398011e+00	1.58584049e-01
-3.83699448e-01	1.26136819e+00
-2.02132479e+00	2.97735929e+00
-5.49437765e+00	1.73105320e+00
-6.85003965e+00	-3.03938532e+00
-3.45355863e+00	-7.92987203e+00
3.04873117e+00	-8.60321426e+00
7.88002348e+00	-4.04859823e+00
7.54668242e+00	2.17349269e+00
3.20560265e+00	5.27937159e+00
-6.43629032e-01	3.93799074e+00
-9.40914603e-01	1.27912691e+00
8.61750512e-01	1.09448277e+00
8.87448839e-01	3.47936826e+00
-2.36182741e+00	4.87616500e+00
-6.10820239e+00	2.42346724e+00
-6.45391451e+00	-2.54249180e+00
-2.77617677e+00	-5.88437623e+00
1.66741473e+00	-5.11660134e+00
3.28998105e+00	-1.78108656e+00
1.71659402e+00	5.13039127e-01
-2.58123847e-01	-1.40656955e-01
2.04757704e-01	-2.22714115e+00
3.06199156e+00	-2.53352450e+00
5.34136824e+00	4.93697052e-01
3.99004479e+00	4.89369660e+00
-8.86172857e-01	6.69650081e+00
-5.53404273e+00	3.72399511e+00
-5.82952502e+00	-1.81556227e+00
-1.54279736e+00	-4.98389515e+00
3.00997349e+00	-3.03553610e+00
3.31068069e+00	1.50004684e+00
-4.31526990e-01	3.46330011e+00
-3.53435938e+00	8.47748658e-01
-2.27744727e+00	-2.96730003e+00
1.78173836e+00	-3.25867914e+00
3.70690680e+00	4.80145062e-01
9.72546403e-01	3.97830328e+00
-3.68075667e+00	3.10884071e+00
-5.40169299e+00	-1.58062715e+00
-2.41346861e+00	-5.71292766e+00
2.54444834e+00	-5.77979779e+00
5.41578370e+00	-2.27694622e+00
4.66226274e+00	1.47219017e+00
2.07174089e+00	2.76104628e+00
5.37329498e-01	1.72506039e+00
1.24120625e+00	7.78438268e-01
2.58133408e+00	2.06837451e+00
1.71116362e+00	5.11045914e+00
-2.43854374e+00	6.80113645e+00
-7.41426966e+00	4.26873296e+00
-8.99067932e+00	-1.83372138e+00
-5.31623342e+00	-7.21676799e+00
8.12404920e-01	-7.86793562e+00
4.52273853e+00	-4.13884974e+00
3.85678445e+00	-2.69562658e-01
1.53131750e+00	3.77857811e-01
1.36999457e+00	-1.09843572e+00
3.64515992e+00	-9.15441210e-01
4.83671382e+00	2.48279891e+00
1.99603999e+00	6.24688949e+00
-3.47303538e+00	6.19210099e+00
-6.96632370e+00	1.52107126e+00
-5.38704443e+00	-4.10024474e+00
-2.29640042e-01	-6.13535596e+00
4.02854998e+00	-3.47677328e+00
4.26566896e+00	8.45475693e-01
1.38957049e+00	2.90139127e+00
-1.03080827e+00	1.63779987e+00
-5.92342023e-01	-4.37936934e-01
1.50385312e+00	-1.92314409e-01
1.84964269e+00	2.58988632e+00
-1.32984726e+00	4.72802743e+00
-5.86699403e+00	2.88226519e+00
-7.42802555e+00	-2.73115266e+00
-3.74845989e+00	-8.06842116e+00
2.97509561e+00	-8.88059154e+00
8.03120441e+00	-4.59591717e+00
8.44873998e+00	1.42334529e+00
5.23195657e+00	5.27253055e+00
1.62267730e+00	5.88628192e+00
-3.86350853e-01	5.12853152e+00
-1.59289185e+00	4.97331268e+00
-3.85075181e+00	5.05636203e+00
-7.19259016e+00	3.21307873e+00
-9.07393299e+00	-1.63958414e+00
-6.76645968e+00	-7.43655717e+00
-5.44420102e-01	-1.01896423e+01
5.80250485e+00	-7.65117697e+00
8.10015185e+00	-1.76012710e+00
5.66471810e+00	2.95717004e+00
1.82411810e+00	3.70533000e+00
2.99711110e-01	1.94249759e+00
1.29725641e+00	1.29935793e+00
1.68512158e+00	3.19363945e+00
-9.63265778e-01	5.13741317e+00
-5.15409971e+00	3.70476416e+00
-6.82153617e+00	-1.25021870e+00
-3.73468586e+00	-5.97791769e+00
1.96088486e+00	-6.50944228e+00
5.76864211e+00	-2.54571361e+00
5.09056628e+00	2.45224622e+00
1.29613885e+00	4.69567262e+00
-2.07311977e+00	3.35551404e+00
-2.74966216e+00	7.14336539e-01
-1.49027050e+00	-5.09429278e-01
-7.72769875e-01	1.45901726e-01
-1.93681199e+00	6.95592300e-01
-3.61493362e+00	-9.29160951e-01
-3.07810608e+00	-4.32567304e+00
7.18549672e-01	-6.54303415e+00
5.51481854e+00	-4.88798966e+00
7.54538701e+00	8.40925584e-02
5.21986706e+00	4.74310803e+00
7.80905076e-01	5.86993412e+00
-2.05611598e+00	3.77707076e+00
-1.97220930e+00	1.60278357e+00
-1.08840889e+00	1.59877167e+00
-2.08166428e+00	2.64153671e+00
-4.77917171e+00	1.77704981e+00
-6.15575254e+00	-2.02991201e+00
-3.72120330e+00	-6.28484207e+00
1.51386205e+00	-7.33202791e+00
5.74814094e+00	-4.07471829e+00
5.98067586e+00	8.79538948e-01
2.76022123e+00	3.69332493e+00
-5.47303190e-01	2.84414654e+00
-1.09390969e+00	3.16884487e-01
7.96602803e-01	-6.24709853e-01
2.19599300e+00	1.17716698e+00
7.65942269e-01	3.63165826e+00
-2.66007301e+00	3.64500402e+00
-4.81875321e+00	4.75890038e-01
-3.40233961e+00	-3.28042486e+00
4.36742878e-01	-4.23734003e+00
3.17751849e+00	-1.70719206e+00
2.51985679e+00	1.62999411e+00
-3.78003362e-01	2.60159218e+00
-2.37088826e+00	7.48363856e-01
-1.73515296e+00	-1.55687370e+00
2.64917350e-01	-1.93135108e+00
1.14484168e+00	-5.02300034e-01
8.64317354e-02	5.24034329e-01
-1.24655473e+00	-4.49399104e-01
-6.74133794e-01	-2.53675993e+00
2.00801411e+00	-3.28332868e+00
4.64190263e+00	-1.25159112e+00
