Dangerplot_version	1.0
Number_of_points	1024
Sampling_frequency	1000
Transmitter_frequency	6.3684e+07
Phi0	0
Phi1	0
PPM_reference	0
Real_FID	Imag_FID
1023.23	599.66
379.347	662.878
201.834	390.598
267.042	247.507
396.026	329.966
255.535	336.175
247.158	207.912
310.634	141.544
400.725	193.442
333.032	258.08
302.326	268.201
329.303	270.462
375.949	365.36
286.63	453.833
194.372	427.999
156.544	318.908
260.328	266.047
331.003	305.77
360.974	358.252
321.72	382.301
288.079	363.583
271.453	357.962
270.463	356.731
213.055	354.975
160.809	359.749
129.923	304.71
136.743	228.411
173.411	226.229
200.781	255.884
181.756	285.221
188.293	289.397
199.337	322.751
153.409	383.182
74.0311	373.027
49.1604	325.849
52.0553	280.037
82.3111	271.046
52.8342	248.388
57.671	227.985
94.3859	207.987
135.031	245.686
116.087	306.585
57.8301	322.131
26.0611	302.493
11.2682	293.755
-1.82598	285.645
-23.0654	259.747
-39.4515	209.143
4.03712	183.196
31.5668	172.94
46.3746	190.354
65.9578	208.306
47.029	230.073
29.1913	228.914
-1.81385	242.692
-38.1404	224.452
-67.6389	179.492
-75.7544	160.496
-56.4637	134.845
-33.0654	135.247
-28.811	150.997
-28.9942	143.835
-9.51794	165.04
-20.5586	179.458
-38.0688	201.319
-68.9946	184.47
-80.2475	162.042
-82.9539	131.318
-77.3967	98.9516
-55.3907	93.5392
-45.557	100.065
-29.4304	109.147
-21.0383	119.019
-43.2841	137.787
-50.257	127.198
-78.0963	123.424
-88.1199	120.003
-96.1021	99.7076
-94.4855	71.9111
-84.8318	61.7682
-47.9141	56.086
-45.3083	73.6017
-26.0324	80.1477
-34.0765	112.286
-48.6651	105.804
-75.6636	101.253
-79.9865	109.586
-109.234	71.8819
-101.498	51.1705
-88.3545	36.9828
-64.1478	36.0206
-58.5036	38.2865
-45.8651	32.4045
-42.2795	62.8147
-29.5094	71.1352
-46.793	93.5547
-70.183	68.9606
-82.7875	64.2543
-81.1377	39.9598
-79.1678	26.784
-73.0798	26.5531
-59.5642	25.6749
-45.0269	12.497
-34.7726	29.9915
-43.3417	35.337
-53.9729	61.35
-65.4449	49.0662
-65.3468	39.9596
-64.625	31.4186
-69.277	31.2721
-69.3431	16.6974
-65.8083	-5.12508
-45.3464	-2.53576
-37.4733	15.2248
-38.1926	34.6311
-54.6937	23.6411
-45.3117	19.8648
-58.2794	23.6214
-58.7414	15.3615
-59.8093	15.859
-67.659	2.59056
-55.2679	-2.23382
-39.7538	-4.21791
-40.8967	11.1452
-39.7439	18.5111
-51.4584	4.52672
-53.3679	15.465
-43.0644	21.7795
-61.5378	20.3216
-68.7544	10.4193
-54.9283	-11.6983
-55.9077	-6.66322
-39.422	-8.74321
-33.1179	-10.2585
-30.8685	-7.46978
-35.7599	-3.23363
-24.5691	3.47546
-38.4484	11.7701
-43.172	9.31808
-53.1553	3.65191
-54.1161	-3.24682
-55.6601	-12.4296
-43.6433	-3.91354
-44.2196	-15.8795
-29.6298	-20.9703
-28.1155	-18.9108
-30.6868	5.74964
-44.1061	18.9689
-42.5136	7.81174
-41.8454	-1.07137
-38.2235	-0.0941696
-39.2798	-0.913372
-33.0688	-8.54189
-42.8389	-19.0871
-28.4568	-13.0693
-25.2982	-18.8283
-28.4723	-20.5293
-29.9775	-9.06721
-34.1704	-11.0587
-40.9511	-6.33543
-31.976	-5.1271
-31.6568	-4.76486
-34.9696	-14.9537
-39.2368	-6.91141
-37.1779	-17.2111
-33.4725	-8.64163
-22.9095	-16.508
-26.2052	-4.92216
-23.6791	-12.8569
-24.6545	-8.32621
-25.5907	-15.8078
-38.0843	-7.4756
-32.2191	-24.066
-28.6126	-21.0337
-33.2154	-14.0097
-22.0425	-10.3596
-15.0489	-11.856
-29.2129	-17.007
-19.5162	-18.223
-29.265	-16.8936
-21.297	-9.85508
-30.4842	-11.9979
-20.1138	-13.8046
-33.6892	-17.5466
-26.1484	-13.163
-22.8485	-14.8859
-10.9431	-15.8096
-12.2014	-10.1432
-20.0724	-4.66599
-22.1475	-22.6654
-20.4057	-14.4261
-22.1132	-18.0477
-24.769	-18.4432
-20.3083	-10.6584
-22.9142	-17.3013
-10.028	-18.0279
-16.0623	-28.4037
-20.6586	-20.2526
-23.57	-18.8582
-32.1185	-27.589
-10.6344	-19.012
-15.3927	-19.6853
-30.0149	-16.6014
-27.9325	-20.6155
-14.723	-16.0564
-14.6326	-15.9179
-16.8136	-15.7589
-17.9675	-7.83806
-7.58499	-17.4791
-10.321	-22.7019
-9.76711	-12.9441
-18.0483	-12.9817
-14.131	-19.0787
-18.197	-22.5274
-12.3352	-13.5983
-16.9941	-12.1882
-19.2747	-15.3704
-21.6358	-16.756
-17.1566	-28.9319
-0.150153	-8.37359
-17.1464	-10.3533
-5.63736	-16.0989
-10.575	-14.7309
-17.3301	-18.5005
-12.3816	-24.3759
-7.90183	-8.04363
-16.5251	-24.4481
-9.55205	-14.1426
-7.86622	-4.21862
-16.8995	-16.6492
-18.3451	-21.6418
-8.1271	-14.1411
2.70762	-19.9692
-18.2264	-17.7221
-4.86999	-16.81
-15.9294	-15.6407
-10.8568	-19.6296
-11.0064	-24.1768
-9.58004	-18.025
-5.08877	-21.2126
-10.8616	-17.0718
-7.90264	-25.1237
-18.2667	-25.3538
-13.5526	-26.1786
-6.73685	-14.9397
-10.8425	-17.6747
1.69324	-12.4031
-3.75655	-23.4427
-6.62141	-11.8557
-2.30067	-15.3622
-8.19939	-22.1325
-8.34023	-14.9295
-10.0951	-15.7737
-12.214	-12.445
0.753973	-20.7003
-9.19059	-24.7133
-5.68065	-24.9429
-8.02737	-15.2459
-3.45877	-22.7918
-6.25191	-19.1656
-5.04932	-22.2456
-13.9924	-15.2454
-8.51026	-18.0492
10.1613	-22.5917
-8.18998	-13.7073
-3.4132	-10.9359
-10.2854	-20.072
1.9205	-18.6175
-6.90444	-12.651
-1.06612	-16.3609
-0.249835	-22.3423
-8.86217	-29.1204
-6.04276	-14.4807
-11.1779	-16.9109
-6.81507	-11.3848
-8.19764	-11.2948
-2.63623	-28.1956
-9.81885	-21.6873
-1.82921	-13.8496
-11.9831	-14.7161
-2.39787	-18.2133
-4.39723	-22.1602
8.36455	-14.3649
-3.0905	-9.4354
-5.31357	-12.8247
-1.10443	-7.22694
-0.0142075	-12.552
4.53189	-19.8757
-1.98995	-20.8264
-2.56941	-17.408
-1.96573	-5.56309
-0.404326	-13.3895
3.61745	-13.481
-9.84761	-8.62708
-6.52941	-31.2618
-5.01196	-18.9594
4.91037	-9.48209
3.75758	-21.2281
4.6533	-13.2012
3.12608	-10.4252
3.51003	-10.8805
-3.202	-10.4396
-3.38278	-6.63597
5.11293	-15.6885
0.262331	-11.8358
3.30976	-27.1197
-3.84763	-15.0038
3.45546	-7.67897
-1.15446	-11.0487
3.87883	-6.62916
11.149	-26.2798
0.161895	-4.92111
5.88663	-3.17864
-14.5924	-9.95622
-3.14265	-20.7102
-5.57724	-5.45722
-0.624009	-14.6886
-9.71009	-12.2165
2.78001	-19.2195
4.87757	-15.3019
7.59499	-2.14023
-1.63644	-11.988
-0.264771	-22.2326
-5.88172	-6.22068
8.19309	-3.40662
-2.85324	-12.9825
-1.04315	-13.7513
1.89951	-16.3465
-1.56416	-11.1539
4.63018	-9.83019
0.731022	-10.4322
7.14031	-23.4178
3.70122	-4.37324
6.46497	-4.01399
1.35101	-5.58469
-2.91679	-3.75668
1.66248	-12.5512
-13.7024	-12.6243
-3.28198	-3.18375
-5.12684	-11.0022
-0.923388	-9.83684
-0.0588337	-17.6068
-5.40362	-7.90816
6.90771	-7.64212
-1.15259	-17.5081
-1.6686	-5.59897
-3.18458	-13.9389
4.8789	-15.5779
5.50093	-12.603
-10.0401	-2.42772
6.42882	-11.9267
-0.387947	-18.4966
-0.176975	-9.30164
-6.09638	-6.72154
-5.37081	-14.2457
-3.51283	-2.90372
-3.70116	-11.6456
-0.518208	-3.96857
-7.60339	-6.6563
-0.882506	-8.64587
-4.58562	-15.5176
3.1608	-8.42506
9.59239	-9.79163
-4.65457	-6.31926
-7.86292	-5.45274
-10.1543	-12.9974
4.27642	-15.6662
6.26966	-5.41308
-5.91563	-5.71251
-3.03405	-8.96723
-1.69287	-6.26015
-1.00564	-9.5618
5.43496	-17.5457
-2.42313	-10.6885
1.90468	-15.6491
-4.50626	-13.4541
-4.90257	0.364355
-0.257383	-4.77069
-2.08282	6.51883
-2.69983	-6.36112
1.96267	-2.79517
5.07459	-9.04698
7.29423	-13.8179
-5.93341	-11.4984
-6.57872	-16.015
-2.19477	5.3609
1.94996	-6.41944
-6.59725	-13.3633
-8.4448	-10.0656
-3.17726	-2.58753
-1.79499	-7.19307
-13.0611	-2.68576
-0.247804	1.08082
2.43475	0.963545
1.79992	-8.96009
8.53321	-4.62429
-2.81498	-0.601236
-4.05719	-5.99438
-7.45959	-12.427
-4.03597	-9.72507
13.4341	3.90985
0.757212	-4.54072
-1.53729	1.37452
-2.99525	-8.73657
1.2226	-7.66798
-0.964169	-12.567
8.67263	-11.3052
9.50847	1.42938
-1.18679	-4.9443
4.33609	-6.89216
6.32407	1.8088
1.51033	-9.35774
6.97738	-5.68094
3.08897	-4.58329
-4.4408	-6.25122
5.42661	-9.41108
4.07974	-8.36762
2.0414	-0.210928
4.18143	-5.3073
-3.31405	2.63601
-2.11011	4.70578
4.64119	4.34226
8.27238	-2.46134
-0.809703	-13.7237
4.3473	-20.9803
4.77293	-9.4927
-6.62896	-3.10785
-9.76082	-6.97582
-9.58885	4.99645
4.77162	8.75615
-6.54444	0.844821
-8.55405	-7.12039
2.35844	-5.33544
3.02903	-9.09838
-2.79493	2.95805
-0.4508	-10.0762
2.61703	3.22989
-0.688167	2.93657
-2.08205	-2.10989
1.07911	-2.03182
-5.47772	-1.61077
-2.92585	3.28143
6.27601	-8.24756
-1.10552	-2.04613
0.832785	-17.5721
-4.89169	-7.84901
1.49594	-5.8823
2.00005	0.0174059
9.01862	-6.64571
-1.93084	-8.52639
-0.488643	-4.16216
4.76934	-1.64209
-1.49814	0.691672
-11.008	9.02083
-6.35861	7.25111
7.35618	-10.0003
-3.1982	0.673943
0.267124	-9.11951
5.34483	-14.918
-0.9624	-7.8828
1.91419	0.328506
10.2189	-4.10501
-2.79538	5.38467
1.36521	-6.86782
-9.69983	-3.40438
8.11388	0.372785
-1.17435	-7.74407
0.396937	-7.05186
0.304295	-6.83955
8.34593	-6.71106
4.24883	-9.0664
-1.09869	-0.835383
6.50959	2.45465
4.76173	-7.80495
-3.91188	-4.00657
7.03821	-6.38109
-4.14106	0.281444
1.96554	-4.55485
5.55339	-6.60447
-5.67703	-3.02473
-5.86749	-0.220105
5.50869	-3.6346
-2.36092	-9.90782
1.4575	1.42104
2.44348	2.35796
0.927063	-10.59
8.10348	-8.52203
1.67095	4.45679
-5.40308	-0.998259
6.90025	2.6877
7.29488	3.64126
-11.2555	-6.83088
4.4291	-5.04446
0.154895	1.14902
-2.54208	7.54232
-6.89211	-5.07715
4.26532	-6.81895
-5.56927	-0.740141
-0.844109	-1.23706
-8.39953	2.24263
4.49511	-0.88325
1.25683	1.30958
3.08842	3.9648
1.18506	-8.35882
5.64748	-1.82928
-1.21366	0.701569
4.20042	-3.49828
-0.43921	-1.96036
7.21896	-9.14891
-3.24421	-5.68665
9.2334	-9.47492
7.65751	11.4188
3.95774	-5.76777
2.36902	2.35966
0.149929	-4.41275
1.22214	-2.03946
-3.50392	1.34993
8.79035	-1.74398
-4.96755	-8.38339
1.61411	1.30774
9.59674	-4.90324
3.83881	-1.19041
-0.206858	2.48235
-5.85401	-1.54725
-1.51604	-3.89225
-1.61117	-0.0830348
-8.60876	-12.6323
2.08263	-3.79866
-4.65674	-4.30816
-11.0336	-9.24704
-3.40008	-2.02452
0.501825	-9.23182
-4.90018	0.198736
3.7314	-1.56953
-3.31106	5.9001
-7.90735	-13.0414
4.23143	0.00762875
7.23033	-4.53494
-3.80665	-6.50609
1.52667	4.23979
5.19234	-3.94734
-3.59089	-3.12332
-2.74187	-1.02285
0.189618	-5.14097
4.06644	2.548
2.10504	4.71932
-6.00406	4.4467
-7.5289	1.72095
4.8537	-0.889061
6.94051	-7.05691
8.07415	-9.21568
2.11902	-7.79464
-3.27388	0.362843
-0.870748	-2.82992
7.83036	-6.8584
1.26689	-5.07601
-2.5242	-7.20308
1.85588	-2.19161
3.49239	-9.44559
-5.65746	-7.11032
-3.70026	-4.43053
-5.79066	1.03376
3.9176	-12.7641
-8.65434	-5.44312
-8.16698	-4.50673
-6.20758	1.403
-0.534834	3.9006
2.03962	-2.95541
6.52079	-5.47211
-4.65166	9.0281
0.348239	-8.29277
-0.215831	9.04709
10.69	-8.28213
-0.98924	-11.4263
-0.0461012	1.80744
7.37985	-0.138535
7.69633	-4.65857
-0.553242	-3.77738
1.44486	-0.51853
-3.50899	-0.453947
2.17443	1.38384
0.0175009	0.777825
7.32844	-5.30193
1.68127	-1.27621
-10.0156	-0.451466
-1.12984	-5.54641
4.61698	-4.87701
0.249854	-10.152
8.16857	-0.754471
2.3013	-8.60169
-1.07618	7.2715
-3.73558	-6.46013
2.01672	-5.09744
-0.496911	-6.57706
-8.89931	-6.2079
1.52939	-15.2709
-0.129492	0.104173
-5.9534	-10.525
10.8396	-9.16371
1.24001	-1.85854
3.92186	-3.21825
-0.0864468	-5.26441
-3.01298	5.39071
-1.37071	4.73649
-10.8089	-4.62904
1.05703	-2.3105
-5.94422	0.0328853
4.61939	0.94742
-3.69846	-0.891714
4.80185	-4.83973
0.784138	-2.99411
8.05795	-2.92001
10.736	1.28834
-3.86858	-11.3715
5.33975	4.54976
-2.84965	-12.2957
-4.30604	1.19923
-6.45187	0.55554
-0.636662	-8.17695
-6.40453	-3.33744
1.3657	-3.69738
-1.47768	-4.52039
-3.997	-2.10797
-3.53914	7.48986
-2.455	7.29861
4.4238	-1.49023
-1.15111	-2.18211
-7.32812	3.06957
6.65556	-8.34245
-4.33585	1.50296
10.6352	8.85579
1.98083	3.27275
3.22207	6.82739
-3.8369	-1.99252
3.1991	4.5292
7.40094	-4.01734
0.136965	-0.574584
-5.29326	2.23062
2.1632	1.96341
-3.32409	-3.03183
-12.2751	-3.27005
6.96603	10.2635
-6.11166	-2.36014
0.373837	3.41494
3.27621	-1.25862
-1.14772	-3.89237
6.09597	-9.92479
-3.37679	-11.0117
-3.82774	-1.93955
6.88512	-14.7492
0.790271	-0.377853
2.88552	-4.75674
4.01024	-0.437703
-8.06534	4.18875
-1.43355	-2.86245
6.49402	-4.62006
1.51213	-1.37854
-3.80021	-1.0825
-5.47993	-5.39095
-10.7294	-7.07233
-2.16272	-1.08137
6.27282	-6.73282
3.02249	-6.38007
1.33054	9.53888
3.64244	-10.0758
1.09182	4.19742
0.332455	2.89796
-1.30333	0.944931
-2.46251	-6.4332
-5.70905	-11.6589
0.860334	1.46586
-2.99987	-1.18223
1.29263	-9.10641
0.9493	1.48775
-2.78052	-3.30987
-3.10873	-2.68626
0.796994	-7.72365
-2.51906	-10.1443
7.06763	-6.48648
-0.910412	1.0529
-4.4624	2.30901
0.780929	-1.43254
-2.54598	-1.40206
-3.24356	-7.17373
-3.19932	-11.0271
-6.93362	5.03573
-7.74012	1.98199
-1.5465	-0.767251
10.7763	-2.17977
-4.08776	5.60849
-4.98498	3.09346
8.10903	-12.3093
-0.817968	-5.87894
-2.76129	-5.39592
0.358932	-2.50849
0.842685	-2.1533
4.27252	-3.77323
2.64407	-3.89672
-3.73896	-3.01959
-0.386445	1.86803
-2.45211	10.9118
-7.63113	6.60547
1.4034	-0.120589
10.3137	0.471005
1.72812	-5.84197
7.06299	-2.04578
-4.00581	1.38497
3.89803	-3.84035
-8.63003	-5.95502
-6.79667	-5.02339
7.91601	-2.60511
2.13683	6.93334
2.57958	-2.40621
7.70893	-9.49241
7.14169	3.78287
0.195532	5.07833
-0.963031	-2.25424
4.19339	-2.86998
-1.77742	8.07807
-7.82606	1.39704
-1.09147	9.50144
-3.86992	-4.28582
1.69464	1.05769
-4.75477	7.83316
1.61623	0.821823
-11.8735	-8.21226
1.66975	2.96715
9.35731	9.80048
-1.04149	5.0749
5.07913	-3.70148
-6.42222	-5.14661
-3.84347	-7.34322
4.88207	1.58961
-9.26517	-7.35721
5.57167	-4.639
-6.34241	-3.19346
-1.44431	6.42787
6.5088	0.985612
-3.56123	-6.11334
2.63407	2.53602
-3.29031	-2.77577
4.18217	-3.20395
2.4235	-8.38621
-2.30842	-1.76724
0.355749	-2.5916
3.61959	-1.69215
1.9291	-6.30511
2.17734	1.03337
-10.6922	2.91299
4.6616	-0.299567
0.0227527	4.60594
-3.97184	5.1267
-6.88009	-5.28723
-4.31082	4.5996
4.12311	-2.04345
1.001	1.95301
1.2134	1.70127
6.62319	2.26199
-1.42964	8.25247
-6.20242	10.349
5.96607	1.3273
-8.70554	-4.51691
-7.14346	-4.30696
-5.87927	-12.006
2.98877	-0.534177
2.10704	14.1379
-1.39264	-7.04136
-5.67688	-2.34291
3.92895	1.17301
1.70434	-1.3494
7.8469	-4.16854
-1.94626	1.43798
-3.07401	-7.02212
-4.29779	3.50416
-2.01794	-0.0162259
-6.49768	-8.22757
-4.48172	-16.3807
-2.01012	1.22751
0.811783	6.88272
-3.15204	8.15785
-9.26907	-7.95688
6.34026	-7.50247
-1.65377	-4.07997
8.80858	-2.65131
-0.669158	-1.84121
3.19016	0.114606
-2.54218	0.428053
-2.09947	-11.1342
-6.38279	-3.80568
7.13952	3.34548
2.94204	0.222936
0.944021	-3.72546
1.87339	5.63105
5.52351	6.88643
-2.08829	-2.00785
-2.18898	9.67618
3.54162	2.11307
1.16767	-10.5439
-4.9551	9.93581
-4.04155	-3.11869
-6.25761	-3.10551
10.8197	-5.03922
1.45568	1.7872
-3.62885	7.089
6.36973	-2.04616
-2.05915	-0.690561
2.81104	-3.35861
-1.96897	3.20846
-2.18905	-6.29929
-0.717478	-1.81952
-0.771219	-5.05148
-9.52333	-3.63404
-0.330527	4.37805
6.54056	3.10014
12.5951	-3.29789
1.46737	-1.22907
6.33395	4.0488
-7.51375	6.33382
3.59462	3.91869
-0.203387	3.37288
2.35854	-1.35834
-4.17206	-3.93801
7.02101	5.78771
-0.96697	-7.01947
-2.06772	6.18615
4.36018	-8.96452
-3.06603	0.0598074
-1.8924	-4.27787
-0.0563884	2.83868
-0.457003	-1.32576
-13.3628	-6.1255
-0.889673	0.976104
-7.79173	8.89207
4.85539	-7.3485
1.95984	3.50283
-4.62916	0.814681
-5.57584	4.7072
4.12223	1.48285
0.633804	-3.48974
6.52789	3.61509
12.6632	2.68925
4.9245	1.21404
6.77147	-2.2975
3.64841	-3.07383
-4.30899	-6.37535
-1.65897	7.43173
6.47826	-2.10749
-5.77714	6.61975
0.317563	-16.2776
-1.1379	3.77911
-0.455701	-2.01216
3.95286	-6.10854
5.30471	-6.36945
2.0241	4.68486
-5.42833	-4.60669
-12.2618	-3.0099
5.65437	-2.07054
3.01579	0.911113
-1.9335	-0.636639
2.36201	3.9302
5.26223	4.4486
-4.37466	-1.08366
3.12853	2.32869
1.81323	0.464779
-3.68452	-5.37794
2.97193	8.95296
-6.5962	4.67386
-6.2926	4.20788
-3.02573	1.95368
2.55544	-5.22894
1.56641	0.866862
-1.29504	5.78207
-2.96169	-7.14853
1.21542	-3.7111
-3.44985	0.762176
2.0724	13.3228
9.51032	2.37307
4.39506	-1.1299
-0.0229295	-3.30455
8.12397	-6.65116
3.16841	0.919041
-2.98529	5.23449
-1.12089	-0.566534
-0.348022	-8.52962
-3.94214	-1.04026
7.45132	-2.20453
1.43642	-9.39695
6.57895	-6.51163
0.53816	-15.8284
6.19945	6.21548
-0.14575	1.60945
-13.0536	-4.01033
-7.82025	-2.90143
12.3935	-1.21465
4.02484	-1.9758
-1.63433	2.52861
3.00299	-1.57138
5.48608	3.1559
-0.442082	-0.196154
-4.95155	2.7498
3.19267	6.80145
-6.59503	-3.15144
-6.98126	-14.6152
-1.76572	9.67853
-2.42019	8.09528
2.1496	2.38104
4.34581	-1.82618
6.29008	7.5138
-9.63853	-7.25472
-6.25812	-2.92484
10.2896	6.50419
-1.13447	-6.64123
1.33582	8.25988
7.43035	3.99402
2.2924	0.494667
-7.03721	-0.857383
1.38547	-4.07091
-2.49796	6.56642
-2.79787	-6.33417
-2.07448	2.76694
4.18816	-1.06574
-4.4504	-7.7514
1.79915	5.38812
-7.25416	0.263546
0.808207	-4.32479
-1.3535	-1.40122
-3.0278	-2.58011
-1.18425	-0.985493
6.8081	4.25249
-7.69238	-13.339
6.61982	-3.26021
-7.88953	0.329745
2.32119	1.10913
-2.02626	8.69094
-6.46903	-3.7592
-7.47899	-7.70435
1.71123	-3.80115
-4.63393	2.99364
-0.58999	-2.91842
-6.28755	0.386382
1.46531	-4.12543
-0.0826332	0.234001
-6.35042	-6.503
-3.64316	3.33841
2.77031	0.416496
-1.03739	1.97809
-0.464238	-1.59376
0.279032	-3.36575
-6.26884	-5.67605
8.88028	-2.77608
2.39218	-6.79924
1.76791	-1.4421
9.69782	2.23127
-6.15501	3.5269
2.39614	-1.03221
0.528061	6.4108
4.26519	1.02386
0.388785	0.463285
-7.71907	5.35411
-1.71962	7.91478
3.50881	7.48084
-2.76332	13.9942
6.21348	-1.45741
-0.330981	5.21791
-2.36481	-11.7251
3.55379	-2.32652
-4.60288	-3.88965
-6.74003	-2.04355
-4.8922	6.07832
-5.92734	1.58845
4.56216	0.400619
-1.5107	4.1339
13.6427	9.58528
-8.67305	1.61702
-4.09376	-2.73737
1.21961	3.27732
2.19678	1.973
5.95888	4.99975
0.822619	1.17706
5.76703	1.54902
-3.04346	4.49749
0.431772	5.94367
-5.10404	-4.09369
-0.858131	-3.51444
0.28239	-7.19721
2.16876	0.827713
5.38329	-2.06231
0.495973	2.2067
2.26993	1.53516
-5.57709	5.41833
4.4848	-7.56266
-5.6125	2.61058
-2.27503	4.99086
4.80702	-1.15635
-1.91717	-4.92128
5.11014	1.71116
0.619801	-4.84417
-0.931946	-3.64188
-1.732	3.68271
4.01046	2.27717
-0.841728	-5.6936
3.43999	2.60298
-6.73448	-5.79903
1.25229	-1.90992
-8.49607	-2.64881
-4.2304	-0.0654646
1.04367	0.637579
-3.1729	14.2203
-0.14509	-2.7766
7.78159	2.4096
-2.57514	-13.299
4.51307	4.43735
1.06533	-8.41393
-1.21605	6.22007
-1.01738	-10.9012
4.04316	2.52299
-7.5576	0.461681
4.74395	14.4371
-8.26264	-13.8875
8.26061	3.44504
6.17739	-10.2129
2.24138	5.00433
-16.2625	-17.4862
16.6132	30.552
